id,p,x,y,z
0,30368029.860074,1036.9635289253,0,-2489.1561502461
0.0050251256282488,30366690.459061,1036.9635462019,0,-2489.1511251502
0.010050251256498,30366642.727195,1036.9635634785,0,-2489.1461000543
0.015075376884293,30366590.352688,1036.9635807551,0,-2489.1410749583
0.020100502512541,30366539.074183,1036.9635980317,0,-2489.1360498624
0.02512562814079,30366487.536971,1036.9636153083,0,-2489.1310247665
0.03015075376904,30366436.060853,1036.9636325849,0,-2489.1259996705
0.035175879396834,30366384.570339,1036.9636498615,0,-2489.1209745746
0.040201005025083,30366333.083246,1036.9636671381,0,-2489.1159494787
0.045226130653332,30366281.59537,1036.9636844146,0,-2489.1109243828
0.050251256281581,30366230.107701,1036.9637016912,0,-2489.1058992868
0.055276381909375,30366178.620008,1036.9637189678,0,-2489.1008741909
0.060301507537624,30366127.132344,1036.9637362444,0,-2489.095849095
0.065326633165874,30366075.644696,1036.963753521,0,-2489.090823999
0.070351758794123,30366024.157068,1036.9637707976,0,-2489.0857989031
0.075376884421917,30365972.66946,1036.9637880742,0,-2489.0807738072
0.080402010050166,30365921.18187,1036.9638053508,0,-2489.0757487112
0.085427135678415,30365869.6943,1036.9638226274,0,-2489.0707236153
0.090452261306664,30365818.206748,1036.963839904,0,-2489.0656985194
0.095477386934913,30365766.719216,1036.9638571806,0,-2489.0606734235
0.10050251256271,30365715.231702,1036.9638744571,0,-2489.0556483275
0.10552763819096,30365663.744209,1036.9638917337,0,-2489.0506232316
0.11055276381921,30365612.256733,1036.9639090103,0,-2489.0455981357
0.11557788944745,30365560.769278,1036.9639262869,0,-2489.0405730397
0.12060301507525,30365509.281841,1036.9639435635,0,-2489.0355479438
0.1256281407035,30365457.794424,1036.9639608401,0,-2489.0305228479
0.13065326633175,30365406.307026,1036.9639781167,0,-2489.025497752
0.13567839196,30365354.819646,1036.9639953933,0,-2489.020472656
0.14070351758779,30365303.332286,1036.9640126699,0,-2489.0154475601
0.14572864321604,30365251.844944,1036.9640299465,0,-2489.0104224642
0.15075376884429,30365200.357623,1036.9640472231,0,-2489.0053973682
0.15577889447254,30365148.870319,1036.9640644997,0,-2489.0003722723
0.16080402010033,30365097.383036,1036.9640817762,0,-2488.9953471764
0.16582914572858,30365045.895772,1036.9640990528,0,-2488.9903220805
0.17085427135683,30364994.408525,1036.9641163294,0,-2488.9852969845
0.17587939698508,30364942.921299,1036.964133606,0,-2488.9802718886
0.18090452261287,30364891.434091,1036.9641508826,0,-2488.9752467927
0.18592964824112,30364839.946903,1036.9641681592,0,-2488.9702216967
0.19095477386937,30364788.459734,1036.9641854358,0,-2488.9651966008
0.19597989949762,30364736.972584,1036.9642027124,0,-2488.9601715049
0.20100502512587,30364685.485454,1036.964219989,0,-2488.9551464089
0.20603015075366,30364633.998342,1036.9642372656,0,-2488.950121313
0.21105527638191,30364582.511249,1036.9642545422,0,-2488.9450962171
0.21608040201016,30364531.024176,1036.9642718188,0,-2488.9400711212
0.22110552763841,30364479.537121,1036.9642890953,0,-2488.9350460252
0.22613065326621,30364428.050086,1036.9643063719,0,-2488.9300209293
0.23115577889445,30364376.56307,1036.9643236485,0,-2488.9249958334
0.2361809045227,30364325.076073,1036.9643409251,0,-2488.9199707374
0.24120603015095,30364273.589095,1036.9643582017,0,-2488.9149456415
0.24623115577875,30364222.102136,1036.9643754783,0,-2488.9099205456
0.251256281407,30364170.615196,1036.9643927549,0,-2488.9048954497
0.25628140703524,30364119.128276,1036.9644100315,0,-2488.8998703537
0.26130653266349,30364067.641375,1036.9644273081,0,-2488.8948452578
0.26633165829129,30364016.154492,1036.9644445847,0,-2488.8898201619
0.27135678391954,30363964.66763,1036.9644618613,0,-2488.8847950659
0.27638190954779,30363913.180786,1036.9644791378,0,-2488.87976997
0.28140703517604,30363861.693961,1036.9644964144,0,-2488.8747448741
0.28643216080428,30363810.207154,1036.964513691,0,-2488.8697197782
0.29145728643208,30363758.720368,1036.9645309676,0,-2488.8646946822
0.29648241206033,30363707.2336,1036.9645482442,0,-2488.8596695863
0.30150753768858,30363655.746852,1036.9645655208,0,-2488.8546444904
0.30653266331683,30363604.260123,1036.9645827974,0,-2488.8496193944
0.31155778894462,30363552.773413,1036.964600074,0,-2488.8445942985
0.31658291457287,30363501.286722,1036.9646173506,0,-2488.8395692026
0.32160804020112,30363449.80005,1036.9646346272,0,-2488.8345441066
0.32663316582937,30363398.313397,1036.9646519038,0,-2488.8295190107
0.33165829145716,30363346.826764,1036.9646691804,0,-2488.8244939148
0.33668341708541,30363295.34015,1036.9646864569,0,-2488.8194688189
0.34170854271366,30363243.853555,1036.9647037335,0,-2488.8144437229
0.34673366834191,30363192.366978,1036.9647210101,0,-2488.809418627
0.3517587939697,30363140.880421,1036.9647382867,0,-2488.8043935311
0.35678391959795,30363089.393883,1036.9647555633,0,-2488.7993684351
0.3618090452262,30363037.907363,1036.9647728399,0,-2488.7943433392
0.36683417085445,30362986.420863,1036.9647901165,0,-2488.7893182433
0.3718592964827,30362934.934383,1036.9648073931,0,-2488.7842931474
0.37688442211049,30362883.447921,1036.9648246697,0,-2488.7792680514
0.38190954773874,30362831.961479,1036.9648419463,0,-2488.7742429555
0.38693467336699,30362780.475056,1036.9648592229,0,-2488.7692178596
0.39195979899524,30362728.988652,1036.9648764994,0,-2488.7641927636
0.39698492462303,30362677.502266,1036.964893776,0,-2488.7591676677
0.40201005025128,30362626.015901,1036.9649110526,0,-2488.7541425718
0.40703517587953,30362574.529554,1036.9649283292,0,-2488.7491174758
0.41206030150778,30362523.043227,1036.9649456058,0,-2488.7440923799
0.41708542713558,30362471.556919,1036.9649628824,0,-2488.739067284
0.42211055276383,30362420.070629,1036.964980159,0,-2488.7340421881
0.42713567839207,30362368.584359,1036.9649974356,0,-2488.7290170921
0.43216080402032,30362317.098107,1036.9650147122,0,-2488.7239919962
0.43718592964812,30362265.611876,1036.9650319888,0,-2488.7189669003
0.44221105527637,30362214.125663,1036.9650492654,0,-2488.7139418043
0.44723618090462,30362162.63947,1036.965066542,0,-2488.7089167084
0.45226130653286,30362111.153295,1036.9650838185,0,-2488.7038916125
0.45728643216111,30362059.66714,1036.9651010951,0,-2488.6988665166
0.46231155778891,30362008.181002,1036.9651183717,0,-2488.6938414206
0.46733668341716,30361956.694886,1036.9651356483,0,-2488.6888163247
0.47236180904541,30361905.208787,1036.9651529249,0,-2488.6837912288
0.47738693467366,30361853.722708,1036.9651702015,0,-2488.6787661328
0.48241206030145,30361802.236648,1036.9651874781,0,-2488.6737410369
0.4874371859297,30361750.750608,1036.9652047547,0,-2488.668715941
0.49246231155795,30361699.264586,1036.9652220313,0,-2488.6636908451
0.4974874371862,30361647.778584,1036.9652393079,0,-2488.6586657491
0.50251256281399,30361596.2926,1036.9652565845,0,-2488.6536406532
0.50753768844224,30361544.806637,1036.965273861,0,-2488.6486155573
0.51256281407049,30361493.320692,1036.9652911376,0,-2488.6435904613
0.51758793969874,30361441.834765,1036.9653084142,0,-2488.6385653654
0.52261306532653,30361390.348859,1036.9653256908,0,-2488.6335402695
0.52763819095478,30361338.862971,1036.9653429674,0,-2488.6285151735
0.53266331658303,30361287.377102,1036.965360244,0,-2488.6234900776
0.53768844221128,30361235.891253,1036.9653775206,0,-2488.6184649817
0.54271356783907,30361184.405424,1036.9653947972,0,-2488.6134398858
0.54773869346732,30361132.919613,1036.9654120738,0,-2488.6084147898
0.55276381909557,30361081.433821,1036.9654293504,0,-2488.6033896939
0.55778894472382,30361029.948048,1036.965446627,0,-2488.598364598
0.56281407035207,30360978.462294,1036.9654639036,0,-2488.593339502
0.56783919597986,30360926.976559,1036.9654811801,0,-2488.5883144061
0.57286432160811,30360875.490845,1036.9654984567,0,-2488.5832893102
0.57788944723636,30360824.005147,1036.9655157333,0,-2488.5782642143
0.58291457286461,30360772.51947,1036.9655330099,0,-2488.5732391183
0.58793969849241,30360721.033813,1036.9655502865,0,-2488.5682140224
0.59296482412066,30360669.548174,1036.9655675631,0,-2488.5631889265
0.5979899497489,30360618.062554,1036.9655848397,0,-2488.5581638305
0.60301507537715,30360566.576953,1036.9656021163,0,-2488.5531387346
0.60804020100495,30360515.091372,1036.9656193929,0,-2488.5481136387
0.6130653266332,30360463.605809,1036.9656366695,0,-2488.5430885428
0.61809045226145,30360412.120267,1036.9656539461,0,-2488.5380634468
0.62311557788969,30360360.634743,1036.9656712226,0,-2488.5330383509
0.62814070351749,30360309.149237,1036.9656884992,0,-2488.528013255
0.63316582914574,30360257.663753,1036.9657057758,0,-2488.522988159
0.63819095477399,30360206.178285,1036.9657230524,0,-2488.5179630631
0.64321608040224,30360154.692838,1036.965740329,0,-2488.5129379672
0.64824120603049,30360103.207409,1036.9657576056,0,-2488.5079128712
0.65326633165828,30360051.722001,1036.9657748822,0,-2488.5028877753
0.65829145728653,30360000.23661,1036.9657921588,0,-2488.4978626794
0.66331658291478,30359948.751239,1036.9658094354,0,-2488.4928375835
0.66834170854303,30359897.265888,1036.965826712,0,-2488.4878124875
0.67336683417082,30359845.780555,1036.9658439886,0,-2488.4827873916
0.67839195979907,30359794.295242,1036.9658612652,0,-2488.4777622957
0.68341708542732,30359742.809946,1036.9658785417,0,-2488.4727371997
0.68844221105557,30359691.324672,1036.9658958183,0,-2488.4677121038
0.69346733668336,30359639.839416,1036.9659130949,0,-2488.4626870079
0.69849246231161,30359588.354178,1036.9659303715,0,-2488.457661912
0.70351758793986,30359536.868962,1036.9659476481,0,-2488.452636816
0.70854271356811,30359485.383763,1036.9659649247,0,-2488.4476117201
0.7135678391959,30359433.898582,1036.9659822013,0,-2488.4425866242
0.71859296482415,30359382.413423,1036.9659994779,0,-2488.4375615282
0.7236180904524,30359330.92828,1036.9660167545,0,-2488.4325364323
0.72864321608065,30359279.44316,1036.9660340311,0,-2488.4275113364
0.7336683417089,30359227.958057,1036.9660513077,0,-2488.4224862404
0.73869346733669,30359176.472972,1036.9660685843,0,-2488.4174611445
0.74371859296494,30359124.987908,1036.9660858608,0,-2488.4124360486
0.74874371859319,30359073.502863,1036.9661031374,0,-2488.4074109527
0.75376884422144,30359022.017836,1036.966120414,0,-2488.4023858567
0.75879396984924,30358970.532828,1036.9661376906,0,-2488.3973607608
0.76381909547749,30358919.047841,1036.9661549672,0,-2488.3923356649
0.76884422110573,30358867.562872,1036.9661722438,0,-2488.3873105689
0.77386934673398,30358816.077922,1036.9661895204,0,-2488.382285473
0.77889447236178,30358764.592992,1036.966206797,0,-2488.3772603771
0.78391959799003,30358713.10808,1036.9662240736,0,-2488.3722352812
0.78894472361828,30358661.623188,1036.9662413502,0,-2488.3672101852
0.79396984924652,30358610.138315,1036.9662586268,0,-2488.3621850893
0.79899497487432,30358558.65346,1036.9662759033,0,-2488.3571599934
0.80402010050257,30358507.168625,1036.9662931799,0,-2488.3521348974
0.80904522613082,30358455.68381,1036.9663104565,0,-2488.3471098015
0.81407035175907,30358404.199013,1036.9663277331,0,-2488.3420847056
0.81909547738732,30358352.714236,1036.9663450097,0,-2488.3370596097
0.82412060301511,30358301.229477,1036.9663622863,0,-2488.3320345137
0.82914572864336,30358249.744739,1036.9663795629,0,-2488.3270094178
0.83417085427161,30358198.260018,1036.9663968395,0,-2488.3219843219
0.83919597989986,30358146.775317,1036.9664141161,0,-2488.3169592259
0.84422110552765,30358095.290635,1036.9664313927,0,-2488.31193413
0.8492462311559,30358043.805973,1036.9664486693,0,-2488.3069090341
0.85427135678415,30357992.32133,1036.9664659459,0,-2488.3018839381
0.8592964824124,30357940.836705,1036.9664832224,0,-2488.2968588422
0.86432160804019,30357889.3521,1036.966500499,0,-2488.2918337463
0.86934673366844,30357837.867515,1036.9665177756,0,-2488.2868086504
0.87437185929669,30357786.382946,1036.9665350522,0,-2488.2817835544
0.87939698492494,30357734.898399,1036.9665523288,0,-2488.2767584585
0.88442211055273,30357683.413871,1036.9665696054,0,-2488.2717333626
0.88944723618098,30357631.929361,1036.966586882,0,-2488.2667082666
0.89447236180923,30357580.444871,1036.9666041586,0,-2488.2616831707
0.89949748743748,30357528.9604,1036.9666214352,0,-2488.2566580748
0.90452261306528,30357477.475948,1036.9666387118,0,-2488.2516329789
0.90954773869352,30357425.991515,1036.9666559884,0,-2488.2466078829
0.91457286432177,30357374.507101,1036.9666732649,0,-2488.241582787
0.91959798995002,30357323.022707,1036.9666905415,0,-2488.2365576911
0.92462311557827,30357271.538332,1036.9667078181,0,-2488.2315325951
0.92964824120607,30357220.053976,1036.9667250947,0,-2488.2265074992
0.93467336683431,30357168.569638,1036.9667423713,0,-2488.2214824033
0.93969849246256,30357117.08532,1036.9667596479,0,-2488.2164573074
0.94472361809081,30357065.601023,1036.9667769245,0,-2488.2114322114
0.94974874371861,30357014.116735,1036.9667942011,0,-2488.2064071155
0.95477386934686,30356962.632511,1036.9668114777,0,-2488.2013820196
0.95979899497511,30356911.148116,1036.9668287543,0,-2488.1963569236
0.96482412060335,30356859.664544,1036.9668460309,0,-2488.1913318277
0.96984924623115,30356808.177587,1036.9668633075,0,-2488.1863067318
0.9748743718594,30356756.705068,1036.966880584,0,-2488.1812816358
0.97989949748765,30356705.171493,1036.9668978606,0,-2488.1762565399
0.9849246231159,30356653.896647,1036.9669151372,0,-2488.171231444
0.98994974874369,30356601.525917,1036.9669324138,0,-2488.1662063481
0.99497487437194,30356553.79752,1036.9669496904,0,-2488.1611812521
1.0000000000002,30343357.203342,1036.966966967,0,-2488.1561561562
