id,p,x,y,z
0,24986644.522383,0,0,-2057
5.179015075377,25068448.859558,4.609361040173,0,-2059.3613529919
10.358030150754,25097040.900434,9.2187220803459,0,-2061.7227059838
15.537045226131,25128401.21733,13.828083120519,0,-2064.0840589757
20.716060301508,25159100.282538,18.437444160692,0,-2066.4454119676
25.895075376884,25189947.437975,23.046805200865,0,-2068.8067649595
31.074090452261,25220751.65254,27.656166241038,0,-2071.1681179514
36.253105527638,25251558.003324,32.265527281211,0,-2073.5294709432
41.432120603015,25282355.849432,36.874888321384,0,-2075.8908239351
46.611135678392,25313147.699637,41.484249361557,0,-2078.252176927
51.790150753769,25343932.959835,46.09361040173,0,-2080.6135299189
56.969165829146,25374711.76816,50.702971441902,0,-2082.9748829108
62.148180904523,25405484.089988,55.312332482075,0,-2085.3362359027
67.327195979899,25436249.931464,59.921693522248,0,-2087.6975888946
72.506211055276,25467009.289125,64.531054562421,0,-2090.0589418865
77.685226130653,25497762.161786,69.140415602594,0,-2092.4202948784
82.86424120603,25528508.547729,73.749776642767,0,-2094.7816478703
88.043256281407,25559248.445373,78.35913768294,0,-2097.1430008622
93.222271356784,25589981.853111,82.968498723113,0,-2099.5043538541
98.401286432161,25620708.769352,87.577859763286,0,-2101.8657068459
103.58030150754,25651429.192512,92.187220803459,0,-2104.2270598378
108.75931658291,25682143.121007,96.796581843632,0,-2106.5884128297
113.93833165829,25712850.553268,101.4059428838,0,-2108.9497658216
119.11734673367,25743551.487727,106.01530392398,0,-2111.3111188135
124.29636180905,25774245.922827,110.62466496415,0,-2113.6724718054
129.47537688442,25804933.857012,115.23402600432,0,-2116.0338247973
134.6543919598,25835615.288741,119.8433870445,0,-2118.3951777892
139.83340703518,25866290.216472,124.45274808467,0,-2120.7565307811
145.01242211055,25896958.638673,129.06210912484,0,-2123.117883773
150.19143718593,25927620.55382,133.67147016502,0,-2125.4792367649
155.37045226131,25958275.960393,138.28083120519,0,-2127.8405897568
160.54946733668,25988924.856882,142.89019224536,0,-2130.2019427486
165.72848241206,26019567.241779,147.49955328553,0,-2132.5632957405
170.90749748744,26050203.113586,152.10891432571,0,-2134.9246487324
176.08651256281,26080832.470814,156.71827536588,0,-2137.2860017243
181.26552763819,26111455.311973,161.32763640605,0,-2139.6473547162
186.44454271357,26142071.635588,165.93699744623,0,-2142.0087077081
191.62355778894,26172681.440185,170.5463584864,0,-2144.3700607
196.80257286432,26203284.7243,175.15571952657,0,-2146.7314136919
201.9815879397,26233881.486473,179.76508056675,0,-2149.0927666838
207.16060301508,26264471.725252,184.37444160692,0,-2151.4541196757
212.33961809045,26295055.439195,188.98380264709,0,-2153.8154726676
217.51863316583,26325632.626857,193.59316368726,0,-2156.1768256595
222.69764824121,26356203.28681,198.20252472744,0,-2158.5381786514
227.87666331658,26386767.417627,202.81188576761,0,-2160.8995316432
233.05567839196,26417325.017889,207.42124680778,0,-2163.2608846351
238.23469346734,26447876.086183,212.03060784796,0,-2165.622237627
243.41370854271,26478420.621105,216.63996888813,0,-2167.9835906189
248.59272361809,26508958.621252,221.2493299283,0,-2170.3449436108
253.77173869347,26539490.085234,225.85869096847,0,-2172.7062966027
258.95075376884,26570015.011664,230.46805200865,0,-2175.0676495946
264.12976884422,26600533.39916,235.07741304882,0,-2177.4290025865
269.3087839196,26631045.246352,239.68677408899,0,-2179.7903555784
274.48779899497,26661550.551871,244.29613512917,0,-2182.1517085703
279.66681407035,26692049.314356,248.90549616934,0,-2184.5130615622
284.84582914573,26722541.532454,253.51485720951,0,-2186.8744145541
290.02484422111,26753027.204821,258.12421824969,0,-2189.2357675459
295.20385929648,26783506.330111,262.73357928986,0,-2191.5971205378
300.38287437186,26813978.90699,267.34294033003,0,-2193.9584735297
305.56188944724,26844444.934132,271.9523013702,0,-2196.3198265216
310.74090452261,26874904.410215,276.56166241038,0,-2198.6811795135
315.91991959799,26905357.333924,281.17102345055,0,-2201.0425325054
321.09893467337,26935803.703948,285.78038449072,0,-2203.4038854973
326.27794974874,26966243.518989,290.3897455309,0,-2205.7652384892
331.45696482412,26996676.777747,294.99910657107,0,-2208.1265914811
336.6359798995,27027103.478933,299.60846761124,0,-2210.487944473
341.81499497487,27057523.621266,304.21782865142,0,-2212.8492974649
346.99401005025,27087937.203467,308.82718969159,0,-2215.2106504568
352.17302512563,27118344.224268,313.43655073176,0,-2217.5720034486
357.352040201,27148744.682403,318.04591177193,0,-2219.9333564405
362.53105527638,27179138.576615,322.65527281211,0,-2222.2947094324
367.71007035176,27209525.905651,327.26463385228,0,-2224.6560624243
372.88908542714,27239906.668268,331.87399489245,0,-2227.0174154162
378.06810050251,27270280.863228,336.48335593263,0,-2229.3787684081
383.24711557789,27300648.489297,341.0927169728,0,-2231.7401214
388.42613065327,27331009.545249,345.70207801297,0,-2234.1014743919
393.60514572864,27361364.029863,350.31143905314,0,-2236.4628273838
398.78416080402,27391711.941929,354.92080009332,0,-2238.8241803757
403.9631758794,27422053.280236,359.53016113349,0,-2241.1855333676
409.14219095477,27452388.043585,364.13952217366,0,-2243.5468863595
414.32120603015,27482716.230783,368.74888321384,0,-2245.9082393514
419.50022110553,27513037.840638,373.35824425401,0,-2248.2695923432
424.6792361809,27543352.871969,377.96760529418,0,-2250.6309453351
429.85825125628,27573661.323602,382.57696633436,0,-2252.992298327
435.03726633166,27603963.194364,387.18632737453,0,-2255.3536513189
440.21628140704,27634258.483095,391.7956884147,0,-2257.7150043108
445.39529648241,27664547.188634,396.40504945487,0,-2260.0763573027
450.57431155779,27694829.309834,401.01441049505,0,-2262.4377102946
455.75332663317,27725104.845546,405.62377153522,0,-2264.7990632865
460.93234170854,27755373.794633,410.23313257539,0,-2267.1604162784
466.11135678392,27785636.155963,414.84249361557,0,-2269.5217692703
471.2903718593,27815891.928409,419.45185465574,0,-2271.8831222622
476.46938693467,27846141.110851,424.06121569591,0,-2274.2444752541
481.64840201005,27876383.702175,428.67057673608,0,-2276.6058282459
486.82741708543,27906619.701271,433.27993777626,0,-2278.9671812378
492.0064321608,27936849.10704,437.88929881643,0,-2281.3285342297
497.18544723618,27967071.918386,442.4986598566,0,-2283.6898872216
502.36446231156,27997288.134217,447.10802089678,0,-2286.0512402135
507.54347738693,28027497.753451,451.71738193695,0,-2288.4125932054
512.72249246231,28057700.775011,456.32674297712,0,-2290.7739461973
517.90150753769,28087897.197826,460.9361040173,0,-2293.1352991892
523.08052261307,28118087.020828,465.54546505747,0,-2295.4966521811
528.25953768844,28148270.242962,470.15482609764,0,-2297.858005173
533.43855276382,28178446.863171,474.76418713781,0,-2300.2193581649
538.6175678392,28208616.88041,479.37354817799,0,-2302.5807111568
543.79658291457,28238780.293637,483.98290921816,0,-2304.9420641486
548.97559798995,28268937.101818,488.59227025833,0,-2307.3034171405
554.15461306533,28299087.303922,493.20163129851,0,-2309.6647701324
559.3336281407,28329230.898928,497.81099233868,0,-2312.0261231243
564.51264321608,28359367.885819,502.42035337885,0,-2314.3874761162
569.69165829146,28389498.263583,507.02971441903,0,-2316.7488291081
574.87067336683,28419622.031216,511.6390754592,0,-2319.1101821
580.04968844221,28449739.187717,516.24843649937,0,-2321.4715350919
585.22870351759,28479849.732095,520.85779753954,0,-2323.8328880838
590.40771859297,28509953.663361,525.46715857972,0,-2326.1942410757
595.58673366834,28540050.980536,530.07651961989,0,-2328.5555940676
600.76574874372,28570141.682644,534.68588066006,0,-2330.9169470595
605.9447638191,28600225.768714,539.29524170024,0,-2333.2783000514
611.12377889447,28630303.237785,543.90460274041,0,-2335.6396530432
616.30279396985,28660374.088898,548.51396378058,0,-2338.0010060351
621.48180904523,28690438.321103,553.12332482075,0,-2340.362359027
626.6608241206,28720495.933453,557.73268586093,0,-2342.7237120189
631.83983919598,28750546.925009,562.3420469011,0,-2345.0850650108
637.01885427136,28780591.294836,566.95140794127,0,-2347.4464180027
642.19786934673,28810629.042007,571.56076898145,0,-2349.8077709946
647.37688442211,28840660.165601,576.17013002162,0,-2352.1691239865
652.55589949749,28870684.6647,580.77949106179,0,-2354.5304769784
657.73491457286,28900702.538393,585.38885210197,0,-2356.8918299703
662.91392964824,28930713.785777,589.99821314214,0,-2359.2531829622
668.09294472362,28960718.405953,594.60757418231,0,-2361.6145359541
673.271959799,28990716.398028,599.21693522248,0,-2363.9758889459
678.45097487437,29020707.761113,603.82629626266,0,-2366.3372419378
683.62998994975,29050692.49433,608.43565730283,0,-2368.6985949297
688.80900502513,29080670.596801,613.045018343,0,-2371.0599479216
693.9880201005,29110642.067657,617.65437938318,0,-2373.4213009135
699.16703517588,29140606.906034,622.26374042335,0,-2375.7826539054
704.34605025126,29170565.111075,626.87310146352,0,-2378.1440068973
709.52506532663,29200516.681925,631.48246250369,0,-2380.5053598892
714.70408040201,29230461.61774,636.09182354387,0,-2382.8667128811
719.88309547739,29260399.917676,640.70118458404,0,-2385.228065873
725.06211055276,29290331.580902,645.31054562421,0,-2387.5894188649
730.24112562814,29320256.606583,649.91990666439,0,-2389.9507718568
735.42014070352,29350174.9939,654.52926770456,0,-2392.3121248486
740.59915577889,29380086.742033,659.13862874473,0,-2394.6734778405
745.77817085427,29409991.85017,663.74798978491,0,-2397.0348308324
750.95718592965,29439890.317503,668.35735082508,0,-2399.3961838243
756.13620100503,29469782.143234,672.96671186525,0,-2401.7575368162
761.3152160804,29499667.326565,677.57607290542,0,-2404.1188898081
766.49423115578,29529545.866707,682.1854339456,0,-2406.4802428
771.67324623116,29559417.762877,686.79479498577,0,-2408.8415957919
776.85226130653,29589283.014294,691.40415602594,0,-2411.2029487838
782.03127638191,29619141.62019,696.01351706612,0,-2413.5643017757
787.21029145729,29648993.579793,700.62287810629,0,-2415.9256547676
792.38930653266,29678838.892343,705.23223914646,0,-2418.2870077595
797.56832160804,29708677.557086,709.84160018663,0,-2420.6483607514
802.74733668342,29738509.573269,714.45096122681,0,-2423.0097137432
807.92635175879,29768334.94015,719.06032226698,0,-2425.3710667351
813.10536683417,29798153.65699,723.66968330715,0,-2427.732419727
818.28438190955,29827965.723052,728.27904434733,0,-2430.0937727189
823.46339698492,29857771.137611,732.8884053875,0,-2432.4551257108
828.6424120603,29887569.899944,737.49776642767,0,-2434.8164787027
833.82142713568,29917362.009334,742.10712746785,0,-2437.1778316946
839.00044221106,29947147.465071,746.71648850802,0,-2439.5391846865
844.17945728643,29976926.266447,751.32584954819,0,-2441.9005376784
849.35847236181,30006698.412763,755.93521058836,0,-2444.2618906703
854.53748743719,30036463.903326,760.54457162854,0,-2446.6232436622
859.71650251256,30066222.737444,765.15393266871,0,-2448.9845966541
864.89551758794,30095974.914434,769.76329370888,0,-2451.3459496459
870.07453266332,30125720.433619,774.37265474906,0,-2453.7073026378
875.25354773869,30155459.294325,778.98201578923,0,-2456.0686556297
880.43256281407,30185191.495886,783.5913768294,0,-2458.4300086216
885.61157788945,30214917.037638,788.20073786958,0,-2460.7913616135
890.79059296482,30244635.91893,792.81009890975,0,-2463.1527146054
895.9696080402,30274348.139103,797.41945994992,0,-2465.5140675973
901.14862311558,30304053.69752,802.02882099009,0,-2467.8754205892
906.32763819095,30333752.593536,806.63818203027,0,-2470.2367735811
911.50665326633,30363444.826518,811.24754307044,0,-2472.598126573
916.68566834171,30393130.395835,815.85690411061,0,-2474.9594795649
921.86468341709,30422809.300866,820.46626515079,0,-2477.3208325568
927.04369849246,30452481.540991,825.07562619096,0,-2479.6821855486
932.22271356784,30482147.1156,829.68498723113,0,-2482.0435385405
937.40172864322,30511806.024081,834.2943482713,0,-2484.4048915324
942.58074371859,30541458.265833,838.90370931148,0,-2486.7662445243
947.75975879397,30571103.840262,843.51307035165,0,-2489.1275975162
952.93877386935,30600742.746772,848.12243139182,0,-2491.4889505081
958.11778894472,30630374.984797,852.731792432,0,-2493.8503035
963.2968040201,30660000.553658,857.34115347217,0,-2496.2116564919
968.47581909548,30689619.453201,861.95051451234,0,-2498.5730094838
973.65483417085,30719231.681081,866.55987555252,0,-2500.9343624757
978.83384924623,30748837.244232,871.16923659269,0,-2503.2957154676
984.01286432161,30778436.110383,875.77859763286,0,-2505.6570684595
989.19187939699,30808028.413153,880.38795867303,0,-2508.0184214513
994.37089447236,30837613.584028,884.99731971321,0,-2510.3797744432
999.54990954774,30867194.028064,889.60668075338,0,-2512.7411274351
1004.7289246231,30896759.551189,894.21604179355,0,-2515.102480427
1009.9079396985,30926353.366009,898.82540283373,0,-2517.4638334189
1015.0869547739,30955792.240301,903.4347638739,0,-2519.8251864108
1020.2659698492,30985853.204263,908.04412491407,0,-2522.1865394027
1025.4449849246,31013241.497538,912.65348595424,0,-2524.5478923946
1030.624,31051925.305828,917.26284699442,0,-2526.9092453865
