id,p,x,y,z
0,31805999.647067,1036.6269392962,0,-2587.0571274544
0.49196761715874,31751310.300098,1036.6286307013,0,-2586.5651627448
0.98393523431702,31745660.958724,1036.6303221065,0,-2586.0731980352
1.4759028514758,31739470.506534,1036.6320135117,0,-2585.5812333256
1.9678704686345,31733419.829985,1036.6337049168,0,-2585.089268616
2.4598380857928,31727348.262774,1036.635396322,0,-2584.5973039064
2.9518057029515,31721293.657711,1036.6370877272,0,-2584.1053391968
3.4437733201103,31715247.002201,1036.6387791324,0,-2583.6133744873
3.935740937269,31709210.339731,1036.6404705375,0,-2583.1214097777
4.4277085544273,31703183.104392,1036.6421619427,0,-2582.6294450681
4.919676171586,31697165.346497,1036.6438533479,0,-2582.1374803585
5.4116437887448,31691156.971551,1036.645544753,0,-2581.6455156489
5.9036114059031,31685157.919892,1036.6472361582,0,-2581.1535509393
6.3955790230618,31679168.124311,1036.6489275634,0,-2580.6615862297
6.8875466402205,31673187.520061,1036.6506189686,0,-2580.1696215201
7.3795142573788,31667216.042501,1036.6523103737,0,-2579.6776568105
7.8714818745376,31661253.627652,1036.6540017789,0,-2579.185692101
8.3634494916963,31655300.212061,1036.6556931841,0,-2578.6937273914
8.855417108855,31649355.732835,1036.6573845892,0,-2578.2017626818
9.3473847260133,31643420.127624,1036.6590759944,0,-2577.7097979722
9.8393523431721,31637493.334624,1036.6607673996,0,-2577.2178332626
10.331319960331,31631575.292574,1036.6624588048,0,-2576.725868553
10.823287577489,31625665.940748,1036.6641502099,0,-2576.2339038434
11.315255194648,31619765.218948,1036.6658416151,0,-2575.7419391338
11.807222811807,31613873.067509,1036.6675330203,0,-2575.2499744242
12.299190428965,31607989.427285,1036.6692244254,0,-2574.7580097147
12.791158046124,31602114.239643,1036.6709158306,0,-2574.2660450051
13.283125663282,31596247.44647,1036.6726072358,0,-2573.7740802955
13.775093280441,31590388.990156,1036.674298641,0,-2573.2821155859
14.267060897599,31584538.813591,1036.6759900461,0,-2572.7901508763
14.759028514758,31578696.860165,1036.6776814513,0,-2572.2981861667
15.250996131917,31572863.073757,1036.6793728565,0,-2571.8062214571
15.742963749075,31567037.398731,1036.6810642616,0,-2571.3142567475
16.234931366234,31561219.779937,1036.6827556668,0,-2570.8222920379
16.726898983393,31555410.162694,1036.684447072,0,-2570.3303273283
17.218866600551,31549608.492795,1036.6861384772,0,-2569.8383626188
17.71083421771,31543814.716496,1036.6878298823,0,-2569.3463979092
18.202801834868,31538028.780516,1036.6895212875,0,-2568.8544331996
18.694769452027,31532250.632024,1036.6912126927,0,-2568.36246849
19.186737069185,31526480.218645,1036.6929040978,0,-2567.8705037804
19.678704686344,31520717.488443,1036.694595503,0,-2567.3785390708
20.170672303503,31514962.389924,1036.6962869082,0,-2566.8865743612
20.662639920661,31509214.872028,1036.6979783134,0,-2566.3946096516
21.15460753782,31503474.884127,1036.6996697185,0,-2565.902644942
21.646575154979,31497742.376012,1036.7013611237,0,-2565.4106802325
22.138542772137,31492017.297903,1036.7030525289,0,-2564.9187155229
22.630510389296,31486299.600427,1036.704743934,0,-2564.4267508133
23.122478006454,31480589.234628,1036.7064353392,0,-2563.9347861037
23.614445623613,31474886.151952,1036.7081267444,0,-2563.4428213941
24.106413240771,31469190.30425,1036.7098181496,0,-2562.9508566845
24.59838085793,31463501.64377,1036.7115095547,0,-2562.4588919749
25.090348475089,31457820.12315,1036.7132009599,0,-2561.9669272653
25.582316092247,31452145.695419,1036.7148923651,0,-2561.4749625557
26.074283709406,31446478.31399,1036.7165837703,0,-2560.9829978462
26.566251326565,31440817.932657,1036.7182751754,0,-2560.4910331366
27.058218943723,31435164.505588,1036.7199665806,0,-2559.999068427
27.550186560882,31429517.987324,1036.7216579858,0,-2559.5071037174
28.04215417804,31423878.332774,1036.7233493909,0,-2559.0151390078
28.534121795199,31418245.497211,1036.7250407961,0,-2558.5231742982
29.026089412357,31412619.436266,1036.7267322013,0,-2558.0312095886
29.518057029516,31407000.105931,1036.7284236065,0,-2557.539244879
30.010024646675,31401387.462543,1036.7301150116,0,-2557.0472801694
30.501992263833,31395781.462796,1036.7318064168,0,-2556.5553154598
30.993959880992,31390182.063721,1036.733497822,0,-2556.0633507503
31.485927498151,31384589.222695,1036.7351892271,0,-2555.5713860407
31.977895115309,31379002.897433,1036.7368806323,0,-2555.0794213311
32.469862732468,31373423.045979,1036.7385720375,0,-2554.5874566215
32.961830349626,31367849.626714,1036.7402634427,0,-2554.0954919119
33.453797966785,31362282.598341,1036.7419548478,0,-2553.6035272023
33.945765583943,31356721.919889,1036.743646253,0,-2553.1115624927
34.437733201102,31351167.550707,1036.7453376582,0,-2552.6195977831
34.929700818261,31345619.450461,1036.7470290633,0,-2552.1276330735
35.421668435419,31340077.579131,1036.7487204685,0,-2551.635668364
35.913636052578,31334541.897004,1036.7504118737,0,-2551.1437036544
36.405603669737,31329012.364681,1036.7521032789,0,-2550.6517389448
36.897571286895,31323488.943061,1036.753794684,0,-2550.1597742352
37.389538904054,31317971.593347,1036.7554860892,0,-2549.6678095256
37.881506521212,31312460.277039,1036.7571774944,0,-2549.175844816
38.373474138371,31306954.955931,1036.7588688995,0,-2548.6838801064
38.86544175553,31301455.59211,1036.7605603047,0,-2548.1919153968
39.357409372688,31295962.147953,1036.7622517099,0,-2547.6999506872
39.849376989847,31290474.58612,1036.7639431151,0,-2547.2079859777
40.341344607005,31284992.869555,1036.7656345202,0,-2546.7160212681
40.833312224164,31279516.961487,1036.7673259254,0,-2546.2240565585
41.325279841323,31274046.825413,1036.7690173306,0,-2545.7320918489
41.817247458481,31268582.425114,1036.7707087357,0,-2545.2401271393
42.30921507564,31263123.724636,1036.7724001409,0,-2544.7481624297
42.801182692799,31257670.6883,1036.7740915461,0,-2544.2561977201
43.293150309957,31252223.280687,1036.7757829513,0,-2543.7642330105
43.785117927116,31246781.466648,1036.7774743564,0,-2543.2722683009
44.277085544274,31241345.211291,1036.7791657616,0,-2542.7803035913
44.769053161433,31235914.479986,1036.7808571668,0,-2542.2883388818
45.261020778591,31230489.238356,1036.7825485719,0,-2541.7963741722
45.75298839575,31225069.45228,1036.7842399771,0,-2541.3044094626
46.244956012909,31219655.087885,1036.7859313823,0,-2540.812444753
46.736923630067,31214246.111553,1036.7876227875,0,-2540.3204800434
47.228891247226,31208842.489904,1036.7893141926,0,-2539.8285153338
47.720858864385,31203444.189808,1036.7910055978,0,-2539.3365506242
48.212826481543,31198051.178374,1036.792697003,0,-2538.8445859146
48.704794098702,31192663.422951,1036.7943884082,0,-2538.352621205
49.19676171586,31187280.891125,1036.7960798133,0,-2537.8606564955
49.688729333019,31181903.550714,1036.7977712185,0,-2537.3686917859
50.180696950177,31176531.369773,1036.7994626237,0,-2536.8767270763
50.672664567336,31171164.316582,1036.8011540288,0,-2536.3847623667
51.164632184495,31165802.359655,1036.802845434,0,-2535.8927976571
51.656599801653,31160445.467725,1036.8045368392,0,-2535.4008329475
52.148567418812,31155093.609754,1036.8062282444,0,-2534.9088682379
52.640535035971,31149746.754921,1036.8079196495,0,-2534.4169035283
53.132502653129,31144404.872632,1036.8096110547,0,-2533.9249388187
53.624470270288,31139067.932499,1036.8113024599,0,-2533.4329741092
54.116437887446,31133735.90436,1036.812993865,0,-2532.9410093996
54.608405504605,31128408.75826,1036.8146852702,0,-2532.44904469
55.100373121763,31123086.464459,1036.8163766754,0,-2531.9570799804
55.592340738922,31117768.993425,1036.8180680806,0,-2531.4651152708
56.084308356081,31112456.315831,1036.8197594857,0,-2530.9731505612
56.576275973239,31107148.402562,1036.8214508909,0,-2530.4811858516
57.068243590398,31101845.224698,1036.8231422961,0,-2529.989221142
57.560211207557,31096546.753529,1036.8248337012,0,-2529.4972564324
58.052178824715,31091252.960539,1036.8265251064,0,-2529.0052917228
58.544146441874,31085963.817414,1036.8282165116,0,-2528.5133270133
59.036114059032,31080679.296036,1036.8299079168,0,-2528.0213623037
59.528081676191,31075399.368478,1036.8315993219,0,-2527.5293975941
60.020049293349,31070124.007012,1036.8332907271,0,-2527.0374328845
60.512016910508,31064853.184096,1036.8349821323,0,-2526.5454681749
61.003984527667,31059586.872379,1036.8366735374,0,-2526.0535034653
61.495952144825,31054325.044698,1036.8383649426,0,-2525.5615387557
61.987919761984,31049067.674077,1036.8400563478,0,-2525.0695740461
62.479887379143,31043814.73372,1036.841747753,0,-2524.5776093365
62.971854996301,31038566.197023,1036.8434391581,0,-2524.085644627
63.46382261346,31033322.037551,1036.8451305633,0,-2523.5936799174
63.955790230618,31028082.229062,1036.8468219685,0,-2523.1017152078
64.447757847777,31022846.745479,1036.8485133736,0,-2522.6097504982
64.939725464935,31017615.560909,1036.8502047788,0,-2522.1177857886
65.431693082094,31012388.649635,1036.851896184,0,-2521.625821079
65.923660699253,31007165.986107,1036.8535875892,0,-2521.1338563694
66.415628316411,31001947.544953,1036.8552789943,0,-2520.6418916598
66.90759593357,30996733.30097,1036.8569703995,0,-2520.1499269502
67.399563550729,30991523.229119,1036.8586618047,0,-2519.6579622407
67.891531167887,30986317.304535,1036.8603532098,0,-2519.1659975311
68.383498785046,30981115.502516,1036.862044615,0,-2518.6740328215
68.875466402204,30975917.798525,1036.8637360202,0,-2518.1820681119
69.367434019363,30970724.168188,1036.8654274254,0,-2517.6901034023
69.859401636521,30965534.587291,1036.8671188305,0,-2517.1981386927
70.35136925368,30960349.031785,1036.8688102357,0,-2516.7061739831
70.843336870839,30955167.477774,1036.8705016409,0,-2516.2142092735
71.335304487997,30949989.901525,1036.872193046,0,-2515.7222445639
71.827272105156,30944816.279458,1036.8738844512,0,-2515.2302798543
72.319239722315,30939646.588147,1036.8755758564,0,-2514.7383151448
72.811207339473,30934480.804323,1036.8772672616,0,-2514.2463504352
73.303174956632,30929318.904866,1036.8789586667,0,-2513.7543857256
73.79514257379,30924160.866809,1036.8806500719,0,-2513.262421016
74.287110190949,30919006.667336,1036.8823414771,0,-2512.7704563064
74.779077808107,30913856.283775,1036.8840328823,0,-2512.2784915968
75.271045425266,30908709.693602,1036.8857242874,0,-2511.7865268872
75.763013042425,30903566.874444,1036.8874156926,0,-2511.2945621776
76.254980659583,30898427.804067,1036.8891070978,0,-2510.802597468
76.746948276742,30893292.460381,1036.8907985029,0,-2510.3106327585
77.238915893901,30888160.82144,1036.8924899081,0,-2509.8186680489
77.730883511059,30883032.865439,1036.8941813133,0,-2509.3267033393
78.222851128218,30877908.570711,1036.8958727185,0,-2508.8347386297
78.714818745376,30872787.915728,1036.8975641236,0,-2508.3427739201
79.206786362535,30867670.879101,1036.8992555288,0,-2507.8508092105
79.698753979694,30862557.439574,1036.900946934,0,-2507.3588445009
80.190721596852,30857447.576029,1036.9026383391,0,-2506.8668797913
80.682689214011,30852341.267479,1036.9043297443,0,-2506.3749150817
81.174656831169,30847238.493073,1036.9060211495,0,-2505.8829503722
81.666624448328,30842139.23209,1036.9077125547,0,-2505.3909856626
82.158592065487,30837043.463939,1036.9094039598,0,-2504.899020953
82.650559682645,30831951.168157,1036.911095365,0,-2504.4070562434
83.142527299804,30826862.324412,1036.9127867702,0,-2503.9150915338
83.634494916963,30821776.912498,1036.9144781753,0,-2503.4231268242
84.126462534121,30816694.912334,1036.9161695805,0,-2502.9311621146
84.61843015128,30811616.303967,1036.9178609857,0,-2502.439197405
85.110397768438,30806541.067562,1036.9195523909,0,-2501.9472326954
85.602365385597,30801469.183415,1036.921243796,0,-2501.4552679858
86.094333002755,30796400.631937,1036.9229352012,0,-2500.9633032763
86.586300619914,30791335.393662,1036.9246266064,0,-2500.4713385667
87.078268237073,30786273.449244,1036.9263180115,0,-2499.9793738571
87.570235854231,30781214.779457,1036.9280094167,0,-2499.4874091475
88.06220347139,30776159.365188,1036.9297008219,0,-2498.9954444379
88.554171088549,30771107.187448,1036.9313922271,0,-2498.5034797283
89.046138705707,30766058.227355,1036.9330836322,0,-2498.0115150187
89.538106322866,30761012.466149,1036.9347750374,0,-2497.5195503091
90.030073940024,30755969.88518,1036.9364664426,0,-2497.0275855995
90.522041557183,30750930.465911,1036.9381578477,0,-2496.53562089
91.014009174341,30745894.189915,1036.9398492529,0,-2496.0436561804
91.5059767915,30740861.038892,1036.9415406581,0,-2495.5516914708
91.997944408659,30735830.994567,1036.9432320633,0,-2495.0597267612
92.489912025817,30730804.039147,1036.9449234684,0,-2494.5677620516
92.981879642976,30725780.153372,1036.9466148736,0,-2494.075797342
93.473847260135,30720759.324743,1036.9483062788,0,-2493.5838326324
93.965814877293,30715741.512723,1036.9499976839,0,-2493.0918679228
94.457782494452,30710726.796051,1036.9516890891,0,-2492.5999032132
94.94975011161,30705714.748851,1036.9533804943,0,-2492.1079385037
95.441717728769,30700707.083325,1036.9550718995,0,-2491.6159737941
95.933685345927,30695696.452576,1036.9567633046,0,-2491.1240090845
96.425652963086,30690713.879364,1036.9584547098,0,-2490.6320443749
96.917620580245,30685627.878753,1036.960146115,0,-2490.1400796653
97.409588197403,30680994.915152,1036.9618375202,0,-2489.6481149557
97.901555814562,30674457.959636,1036.9635289253,0,-2489.1561502461
