id,p,x,y,z
0,31051925.305828,917.26284699442,0,-2526.9092453865
0.0050251256283182,31053375.846827,917.26285314816,0,-2526.9042202646
0.010050251256182,31053317.566254,917.2628593019,0,-2526.8991951428
0.0150753768845,31053253.616896,917.26286545564,0,-2526.8941700209
0.020100502512363,31053191.005759,917.26287160938,0,-2526.889144899
0.025125628140682,31053128.078712,917.26287776312,0,-2526.8841197772
0.030150753769,31053065.226245,917.26288391686,0,-2526.8790946553
0.035175879396863,31053002.356175,917.2628900706,0,-2526.8740695335
0.040201005025182,31052939.490261,917.26289622434,0,-2526.8690444116
0.045226130653045,31052876.623369,917.26290237808,0,-2526.8640192897
0.050251256281363,31052813.75671,917.26290853182,0,-2526.8589941679
0.055276381909681,31052750.889997,917.26291468556,0,-2526.853969046
0.060301507537545,31052688.0233,917.2629208393,0,-2526.8489439242
0.065326633165863,31052625.156601,917.26292699304,0,-2526.8439188023
0.070351758794181,31052562.289904,917.26293314678,0,-2526.8388936804
0.075376884422045,31052499.423209,917.26293930052,0,-2526.8338685586
0.080402010050363,31052436.556516,917.26294545426,0,-2526.8288434367
0.085427135678226,31052373.689825,917.26295160801,0,-2526.8238183149
0.090452261306545,31052310.823135,917.26295776175,0,-2526.818793193
0.095477386934863,31052247.956446,917.26296391549,0,-2526.8137680711
0.10050251256273,31052185.08976,917.26297006923,0,-2526.8087429493
0.10552763819104,31052122.223075,917.26297622297,0,-2526.8037178274
0.11055276381891,31052059.356392,917.26298237671,0,-2526.7986927056
0.11557788944723,31051996.489712,917.26298853045,0,-2526.7936675837
0.12060301507554,31051933.623032,917.26299468419,0,-2526.7886424618
0.12562814070341,31051870.756354,917.26300083793,0,-2526.78361734
0.13065326633173,31051807.889678,917.26300699167,0,-2526.7785922181
0.13567839195959,31051745.023005,917.26301314541,0,-2526.7735670963
0.14070351758791,31051682.156332,917.26301929915,0,-2526.7685419744
0.14572864321623,31051619.28966,917.26302545289,0,-2526.7635168525
0.15075376884409,31051556.422991,917.26303160663,0,-2526.7584917307
0.15577889447241,31051493.556324,917.26303776037,0,-2526.7534666088
0.16080402010027,31051430.689657,917.26304391411,0,-2526.748441487
0.16582914572859,31051367.822993,917.26305006785,0,-2526.7434163651
0.17085427135691,31051304.956331,917.26305622159,0,-2526.7383912432
0.17587939698477,31051242.089671,917.26306237533,0,-2526.7333661214
0.18090452261309,31051179.223012,917.26306852907,0,-2526.7283409995
0.18592964824095,31051116.356355,917.26307468281,0,-2526.7233158777
0.19095477386927,31051053.4897,917.26308083655,0,-2526.7182907558
0.19597989949759,31050990.623045,917.26308699029,0,-2526.7132656339
0.20100502512545,31050927.756394,917.26309314404,0,-2526.7082405121
0.20603015075377,31050864.889744,917.26309929778,0,-2526.7032153902
0.21105527638209,31050802.023096,917.26310545152,0,-2526.6981902684
0.21608040200995,31050739.156449,917.26311160526,0,-2526.6931651465
0.22110552763827,31050676.289803,917.263117759,0,-2526.6881400246
0.22613065326613,31050613.42316,917.26312391274,0,-2526.6831149028
0.23115577889445,31050550.556519,917.26313006648,0,-2526.6780897809
0.23618090452277,31050487.689878,917.26313622022,0,-2526.6730646591
0.24120603015063,31050424.82324,917.26314237396,0,-2526.6680395372
0.24623115577895,31050361.956604,917.2631485277,0,-2526.6630144153
0.25125628140682,31050299.089969,917.26315468144,0,-2526.6579892935
0.25628140703513,31050236.223336,917.26316083518,0,-2526.6529641716
0.26130653266345,31050173.356704,917.26316698892,0,-2526.6479390498
0.26633165829132,31050110.490075,917.26317314266,0,-2526.6429139279
0.27135678391963,31050047.623447,917.2631792964,0,-2526.637888806
0.2763819095475,31049984.756821,917.26318545014,0,-2526.6328636842
0.28140703517582,31049921.890197,917.26319160388,0,-2526.6278385623
0.28643216080413,31049859.023573,917.26319775762,0,-2526.6228134405
0.291457286432,31049796.156953,917.26320391136,0,-2526.6177883186
0.29648241206032,31049733.290334,917.2632100651,0,-2526.6127631967
0.30150753768818,31049670.423716,917.26321621884,0,-2526.6077380749
0.3065326633165,31049607.557101,917.26322237258,0,-2526.602712953
0.31155778894482,31049544.690486,917.26322852632,0,-2526.5976878312
0.31658291457268,31049481.823874,917.26323468007,0,-2526.5926627093
0.321608040201,31049418.957263,917.26324083381,0,-2526.5876375874
0.32663316582932,31049356.090653,917.26324698755,0,-2526.5826124656
0.33165829145718,31049293.224046,917.26325314129,0,-2526.5775873437
0.3366834170855,31049230.357441,917.26325929503,0,-2526.5725622218
0.34170854271336,31049167.490838,917.26326544877,0,-2526.5675371
0.34673366834168,31049104.624235,917.26327160251,0,-2526.5625119781
0.35175879397,31049041.757635,917.26327775625,0,-2526.5574868563
0.35678391959786,31048978.891037,917.26328390999,0,-2526.5524617344
0.36180904522618,31048916.024439,917.26329006373,0,-2526.5474366125
0.36683417085404,31048853.157844,917.26329621747,0,-2526.5424114907
0.37185929648236,31048790.29125,917.26330237121,0,-2526.5373863688
0.37688442211068,31048727.424658,917.26330852495,0,-2526.532361247
0.38190954773854,31048664.558067,917.26331467869,0,-2526.5273361251
0.38693467336686,31048601.69148,917.26332083243,0,-2526.5223110032
0.39195979899472,31048538.824893,917.26332698617,0,-2526.5172858814
0.39698492462304,31048475.958308,917.26333313991,0,-2526.5122607595
0.40201005025136,31048413.091725,917.26333929365,0,-2526.5072356377
0.40703517587922,31048350.225144,917.26334544739,0,-2526.5022105158
0.41206030150754,31048287.358564,917.26335160113,0,-2526.4971853939
0.41708542713541,31048224.491985,917.26335775487,0,-2526.4921602721
0.42211055276372,31048161.62541,917.26336390861,0,-2526.4871351502
0.42713567839204,31048098.758835,917.26337006235,0,-2526.4821100284
0.43216080401991,31048035.892262,917.26337621609,0,-2526.4770849065
0.43718592964822,31047973.025691,917.26338236984,0,-2526.4720597846
0.44221105527654,31047910.159122,917.26338852358,0,-2526.4670346628
0.44723618090441,31047847.292553,917.26339467732,0,-2526.4620095409
0.45226130653272,31047784.425987,917.26340083106,0,-2526.4569844191
0.45728643216059,31047721.559423,917.2634069848,0,-2526.4519592972
0.46231155778891,31047658.692862,917.26341313854,0,-2526.4469341753
0.46733668341722,31047595.8263,917.26341929228,0,-2526.4419090535
0.47236180904509,31047532.959741,917.26342544602,0,-2526.4368839316
0.47738693467341,31047470.093184,917.26343159976,0,-2526.4318588098
0.48241206030127,31047407.226628,917.2634377535,0,-2526.4268336879
0.48743718592959,31047344.360075,917.26344390724,0,-2526.421808566
0.49246231155791,31047281.493522,917.26345006098,0,-2526.4167834442
0.49748743718577,31047218.626971,917.26345621472,0,-2526.4117583223
0.50251256281409,31047155.760422,917.26346236846,0,-2526.4067332005
0.50753768844195,31047092.893876,917.2634685222,0,-2526.4017080786
0.51256281407027,31047030.02733,917.26347467594,0,-2526.3966829567
0.51758793969859,31046967.160786,917.26348082968,0,-2526.3916578349
0.52261306532645,31046904.294244,917.26348698342,0,-2526.386632713
0.52763819095477,31046841.427704,917.26349313716,0,-2526.3816075912
0.53266331658263,31046778.561166,917.2634992909,0,-2526.3765824693
0.53768844221095,31046715.694629,917.26350544464,0,-2526.3715573474
0.54271356783927,31046652.828094,917.26351159838,0,-2526.3665322256
0.54773869346713,31046589.96156,917.26351775212,0,-2526.3615071037
0.55276381909545,31046527.095029,917.26352390587,0,-2526.3564819819
0.55778894472331,31046464.228499,917.26353005961,0,-2526.35145686
0.56281407035163,31046401.36197,917.26353621335,0,-2526.3464317381
0.56783919597995,31046338.495445,917.26354236709,0,-2526.3414066163
0.57286432160781,31046275.62892,917.26354852083,0,-2526.3363814944
0.57788944723613,31046212.762396,917.26355467457,0,-2526.3313563726
0.58291457286445,31046149.895876,917.26356082831,0,-2526.3263312507
0.58793969849231,31046087.029356,917.26356698205,0,-2526.3213061288
0.59296482412063,31046024.162838,917.26357313579,0,-2526.316281007
0.59798994974849,31045961.296321,917.26357928953,0,-2526.3112558851
0.60301507537681,31045898.429807,917.26358544327,0,-2526.3062307633
0.60804020100513,31045835.563295,917.26359159701,0,-2526.3012056414
0.61306532663299,31045772.696784,917.26359775075,0,-2526.2961805195
0.61809045226131,31045709.830275,917.26360390449,0,-2526.2911553977
0.62311557788918,31045646.963767,917.26361005823,0,-2526.2861302758
0.62814070351749,31045584.097261,917.26361621197,0,-2526.281105154
0.63316582914581,31045521.230757,917.26362236571,0,-2526.2760800321
0.63819095477368,31045458.364255,917.26362851945,0,-2526.2710549102
0.64321608040199,31045395.497754,917.26363467319,0,-2526.2660297884
0.64824120602986,31045332.631256,917.26364082693,0,-2526.2610046665
0.65326633165818,31045269.764759,917.26364698067,0,-2526.2559795447
0.65829145728649,31045206.898262,917.26365313441,0,-2526.2509544228
0.66331658291436,31045144.031769,917.26365928815,0,-2526.2459293009
0.66834170854268,31045081.165277,917.2636654419,0,-2526.2409041791
0.67336683417054,31045018.298787,917.26367159564,0,-2526.2358790572
0.67839195979886,31044955.432298,917.26367774938,0,-2526.2308539354
0.68341708542718,31044892.56581,917.26368390312,0,-2526.2258288135
0.68844221105504,31044829.699326,917.26369005686,0,-2526.2208036916
0.69346733668336,31044766.832842,917.2636962106,0,-2526.2157785698
0.69849246231168,31044703.966361,917.26370236434,0,-2526.2107534479
0.70351758793954,31044641.09988,917.26370851808,0,-2526.2057283261
0.70854271356786,31044578.233402,917.26371467182,0,-2526.2007032042
0.71356783919572,31044515.366925,917.26372082556,0,-2526.1956780823
0.71859296482404,31044452.50045,917.2637269793,0,-2526.1906529605
0.72361809045236,31044389.633977,917.26373313304,0,-2526.1856278386
0.72864321608022,31044326.767506,917.26373928678,0,-2526.1806027168
0.73366834170854,31044263.901037,917.26374544052,0,-2526.1755775949
0.7386934673364,31044201.034568,917.26375159426,0,-2526.170552473
0.74371859296472,31044138.168102,917.263757748,0,-2526.1655273512
0.74874371859304,31044075.301636,917.26376390174,0,-2526.1605022293
0.7537688442209,31044012.435175,917.26377005548,0,-2526.1554771075
0.75879396984922,31043949.568714,917.26377620922,0,-2526.1504519856
0.76381909547708,31043886.702254,917.26378236296,0,-2526.1454268637
0.7688442211054,31043823.835797,917.2637885167,0,-2526.1404017419
0.77386934673372,31043760.96934,917.26379467044,0,-2526.13537662
0.77889447236158,31043698.102886,917.26380082418,0,-2526.1303514982
0.7839195979899,31043635.236434,917.26380697793,0,-2526.1253263763
0.78894472361777,31043572.369983,917.26381313167,0,-2526.1203012544
0.79396984924608,31043509.503534,917.26381928541,0,-2526.1152761326
0.7989949748744,31043446.637087,917.26382543915,0,-2526.1102510107
0.80402010050227,31043383.77064,917.26383159289,0,-2526.1052258888
0.80904522613058,31043320.904197,917.26383774663,0,-2526.100200767
0.8140703517589,31043258.037755,917.26384390037,0,-2526.0951756451
0.81909547738677,31043195.171314,917.26385005411,0,-2526.0901505233
0.82412060301508,31043132.304875,917.26385620785,0,-2526.0851254014
0.82914572864295,31043069.438438,917.26386236159,0,-2526.0801002795
0.83417085427127,31043006.572003,917.26386851533,0,-2526.0750751577
0.83919597989958,31042943.70557,917.26387466907,0,-2526.0700500358
0.84422110552745,31042880.839138,917.26388082281,0,-2526.065024914
0.84924623115577,31042817.972708,917.26388697655,0,-2526.0599997921
0.85427135678363,31042755.106279,917.26389313029,0,-2526.0549746702
0.85929648241195,31042692.239852,917.26389928403,0,-2526.0499495484
0.86432160804027,31042629.373428,917.26390543777,0,-2526.0449244265
0.86934673366813,31042566.507004,917.26391159151,0,-2526.0398993047
0.87437185929645,31042503.640582,917.26391774525,0,-2526.0348741828
0.87939698492431,31042440.774163,917.26392389899,0,-2526.0298490609
0.88442211055263,31042377.907745,917.26393005273,0,-2526.0248239391
0.88944723618095,31042315.041328,917.26393620647,0,-2526.0197988172
0.89447236180881,31042252.174913,917.26394236021,0,-2526.0147736954
0.89949748743713,31042189.308501,917.26394851395,0,-2526.0097485735
0.90452261306499,31042126.442089,917.2639546677,0,-2526.0047234516
0.90954773869331,31042063.575679,917.26396082144,0,-2525.9996983298
0.91457286432163,31042000.709272,917.26396697518,0,-2525.9946732079
0.91959798994949,31041937.842866,917.26397312892,0,-2525.9896480861
0.92462311557781,31041874.976462,917.26397928266,0,-2525.9846229642
0.92964824120567,31041812.110059,917.2639854364,0,-2525.9795978423
0.93467336683399,31041749.243658,917.26399159014,0,-2525.9745727205
0.93969849246231,31041686.377259,917.26399774388,0,-2525.9695475986
0.94472361809017,31041623.510862,917.26400389762,0,-2525.9645224768
0.94974874371849,31041560.644457,917.26401005136,0,-2525.9594973549
0.95477386934681,31041497.778107,917.2640162051,0,-2525.954472233
0.95979899497467,31041434.911528,917.26402235884,0,-2525.9494471112
0.96482412060299,31041372.04593,917.26402851258,0,-2525.9444219893
0.96984924623086,31041309.176179,917.26403466632,0,-2525.9393968675
0.97487437185917,31041246.324035,917.26404082006,0,-2525.9343717456
0.97989949748749,31041183.397318,917.2640469738,0,-2525.9293466237
0.98492462311536,31041120.7865,917.26405312754,0,-2525.9243215019
0.98994974874367,31041056.837525,917.26405928128,0,-2525.91929638
0.99497487437154,31040998.557088,917.26406543502,0,-2525.9142712582
0.99999999999986,31040916.264338,917.26407158876,0,-2525.9092461363
