id,p,x,y,z
0,-2653952.19385,0,0,0
10.336683417085,-2470683.1744328,1.2658793969849e-15,0,-10.336683417085
20.673366834171,-2340883.6490264,2.5317587939698e-15,0,-20.673366834171
31.010050251256,-2198454.0100088,3.7976381909548e-15,0,-31.010050251256
41.346733668342,-2058996.8151584,5.0635175879397e-15,0,-41.346733668342
51.683417085427,-1918829.7110686,6.3293969849246e-15,0,-51.683417085427
62.020100502513,-1778822.2883115,7.5952763819095e-15,0,-62.020100502513
72.356783919598,-1638769.7620001,8.8611557788945e-15,0,-72.356783919598
82.693467336683,-1498720.9204736,1.0127035175879e-14,0,-82.693467336683
93.030150753769,-1358664.7061839,1.1392914572864e-14,0,-93.030150753769
103.36683417085,-1218604.184639,1.2658793969849e-14,0,-103.36683417085
113.70351758794,-1078539.0878949,1.3924673366834e-14,0,-113.70351758794
124.04020100503,-938469.93403387,1.5190552763819e-14,0,-124.04020100503
134.37688442211,-798397.05505896,1.6456432160804e-14,0,-134.37688442211
144.7135678392,-658320.82627439,1.7722311557789e-14,0,-144.7135678392
155.05025125628,-518241.61214972,1.8988190954774e-14,0,-155.05025125628
165.38693467337,-378159.77908945,2.0254070351759e-14,0,-165.38693467337
175.72361809045,-238075.6924181,2.1519949748744e-14,0,-175.72361809045
186.06030150754,-97989.717076778,2.2785829145729e-14,0,-186.06030150754
196.39698492462,42097.782539845,2.4051708542714e-14,0,-196.39698492462
206.73366834171,182186.44255638,2.5317587939698e-14,0,-206.73366834171
217.07035175879,322275.89962482,2.6583467336683e-14,0,-217.07035175879
227.40703517588,462365.79093313,2.7849346733668e-14,0,-227.40703517588
237.74371859296,602455.75420427,2.9115226130653e-14,0,-237.74371859296
248.08040201005,742545.42770815,3.0381105527638e-14,0,-248.08040201005
258.41708542714,882634.45026112,3.1646984924623e-14,0,-258.41708542714
268.75376884422,1022722.4612312,3.2912864321608e-14,0,-268.75376884422
279.09045226131,1162809.1005468,3.4178743718593e-14,0,-279.09045226131
289.42713567839,1302894.0086956,3.5444623115578e-14,0,-289.42713567839
299.76381909548,1442976.8267369,3.6710502512563e-14,0,-299.76381909548
310.10050251256,1583057.1962976,3.7976381909548e-14,0,-310.10050251256
320.43718592965,1723134.7595839,3.9242261306533e-14,0,-320.43718592965
330.77386934673,1863209.1593809,4.0508140703518e-14,0,-330.77386934673
341.11055276382,2003280.0390611,4.1774020100503e-14,0,-341.11055276382
351.4472361809,2143347.0425887,4.3039899497487e-14,0,-351.4472361809
361.78391959799,2283409.8145189,4.4305778894472e-14,0,-361.78391959799
372.12060301508,2423468.0000114,4.5571658291457e-14,0,-372.12060301508
382.45728643216,2563521.2448263,4.6837537688442e-14,0,-382.45728643216
392.79396984925,2703569.1953335,4.8103417085427e-14,0,-392.79396984925
403.13065326633,2843611.4985166,4.9369296482412e-14,0,-403.13065326633
413.46733668342,2983647.8019724,5.0635175879397e-14,0,-413.46733668342
423.8040201005,3123677.7539263,5.1901055276382e-14,0,-423.8040201005
434.14070351759,3263701.0032239,5.3166934673367e-14,0,-434.14070351759
444.47738693467,3403717.1993456,5.4432814070352e-14,0,-444.47738693467
454.81407035176,3543725.992404,5.5698693467337e-14,0,-454.81407035176
465.15075376884,3683727.0331497,5.6964572864322e-14,0,-465.15075376884
475.48743718593,3823719.9729791,5.8230452261307e-14,0,-475.48743718593
485.82412060302,3963704.4639349,5.9496331658291e-14,0,-485.82412060302
496.1608040201,4103680.1587119,6.0762211055276e-14,0,-496.1608040201
506.49748743719,4243646.7106595,6.2028090452261e-14,0,-506.49748743719
516.83417085427,4383603.7737875,6.3293969849246e-14,0,-516.83417085427
527.17085427136,4523551.0027704,6.4559849246231e-14,0,-527.17085427136
537.50753768844,4663488.0529523,6.5825728643216e-14,0,-537.50753768844
547.84422110553,4803414.5803447,6.7091608040201e-14,0,-547.84422110553
558.18090452261,4943330.2416391,6.8357487437186e-14,0,-558.18090452261
568.5175879397,5083234.6942058,6.9623366834171e-14,0,-568.5175879397
578.85427135678,5223127.5960994,7.0889246231156e-14,0,-578.85427135678
589.19095477387,5363008.6060624,7.2155125628141e-14,0,-589.19095477387
599.52763819095,5502877.3835273,7.3421005025126e-14,0,-599.52763819095
609.86432160804,5642733.5886264,7.4686884422111e-14,0,-609.86432160804
620.20100502513,5782576.8821874,7.5952763819095e-14,0,-620.20100502513
630.53768844221,5922406.9257426,7.721864321608e-14,0,-630.53768844221
640.8743718593,6062223.3815322,7.8484522613065e-14,0,-640.8743718593
651.21105527638,6202025.9125056,7.975040201005e-14,0,-651.21105527638
661.54773869347,6341814.1823292,8.1016281407035e-14,0,-661.54773869347
671.88442211055,6481587.8553839,8.228216080402e-14,0,-671.88442211055
682.22110552764,6621346.5967751,8.3548040201005e-14,0,-682.22110552764
692.55778894472,6761090.0723329,8.481391959799e-14,0,-692.55778894472
702.89447236181,6900817.9486146,8.6079798994975e-14,0,-702.89447236181
713.23115577889,7040529.8929129,8.734567839196e-14,0,-713.23115577889
723.56783919598,7180225.573256,8.8611557788945e-14,0,-723.56783919598
733.90452261307,7319904.6584067,8.987743718593e-14,0,-733.90452261307
744.24120603015,7459566.8178792,9.1143316582915e-14,0,-744.24120603015
754.57788944724,7599211.7219272,9.2409195979899e-14,0,-754.57788944724
764.91457286432,7738839.0415568,9.3675075376884e-14,0,-764.91457286432
775.25125628141,7878448.4485269,9.4940954773869e-14,0,-775.25125628141
785.58793969849,8018039.6153526,9.6206834170854e-14,0,-785.58793969849
795.92462311558,8157612.2153091,9.7472713567839e-14,0,-795.92462311558
806.26130653266,8297165.9224339,9.8738592964824e-14,0,-806.26130653266
816.59798994975,8436700.4115314,1.0000447236181e-13,0,-816.59798994975
826.93467336683,8576215.3581743,1.0127035175879e-13,0,-826.93467336683
837.27135678392,8715710.4387107,1.0253623115578e-13,0,-837.27135678392
847.608040201,8855185.3302617,1.0380211055276e-13,0,-847.608040201
857.94472361809,8994639.7107272,1.0506798994975e-13,0,-857.94472361809
868.28140703518,9134073.2587914,1.0633386934673e-13,0,-868.28140703518
878.61809045226,9273485.6539221,1.0759974874372e-13,0,-878.61809045226
888.95477386935,9412876.5763745,1.088656281407e-13,0,-888.95477386935
899.29145728643,9552245.7071948,1.1013150753769e-13,0,-899.29145728643
909.62814070352,9691592.7282248,1.1139738693467e-13,0,-909.62814070352
919.9648241206,9830917.3221021,1.1266326633166e-13,0,-919.9648241206
930.30150753769,9970219.1722631,1.1392914572864e-13,0,-930.30150753769
940.63819095477,10109497.962949,1.1519502512563e-13,0,-940.63819095477
950.97487437186,10248753.379205,1.1646090452261e-13,0,-950.97487437186
961.31155778894,10387985.106886,1.177267839196e-13,0,-961.31155778894
971.64824120603,10527192.832656,1.1899266331658e-13,0,-971.64824120603
981.98492462312,10666376.243993,1.2025854271357e-13,0,-981.98492462312
992.3216080402,10805535.029195,1.2152442211055e-13,0,-992.3216080402
1002.6582914573,10944668.877375,1.2279030150754e-13,0,-1002.6582914573
1012.9949748744,11083777.478468,1.2405618090452e-13,0,-1012.9949748744
1023.3316582915,11222860.523238,1.2532206030151e-13,0,-1023.3316582915
1033.6683417085,11361917.70327,1.2658793969849e-13,0,-1033.6683417085
1044.0050251256,11500948.710985,1.2785381909548e-13,0,-1044.0050251256
1054.3417085427,11639953.239629,1.2911969849246e-13,0,-1054.3417085427
1064.6783919598,11778930.983289,1.3038557788945e-13,0,-1064.6783919598
1075.0150753769,11917881.636885,1.3165145728643e-13,0,-1075.0150753769
1085.351758794,12056804.896181,1.3291733668342e-13,0,-1085.351758794
1095.6884422111,12195700.457775,1.341832160804e-13,0,-1095.6884422111
1106.0251256281,12334568.019119,1.3544909547739e-13,0,-1106.0251256281
1116.3618090452,12473407.278505,1.3671497487437e-13,0,-1116.3618090452
1126.6984924623,12612217.935077,1.3798085427136e-13,0,-1126.6984924623
1137.0351758794,12750999.688829,1.3924673366834e-13,0,-1137.0351758794
1147.3718592965,12889752.24061,1.4051261306533e-13,0,-1147.3718592965
1157.7085427136,13028475.292121,1.4177849246231e-13,0,-1157.7085427136
1168.0452261307,13167168.545927,1.430443718593e-13,0,-1168.0452261307
1178.3819095477,13305831.705446,1.4431025125628e-13,0,-1178.3819095477
1188.7185929648,13444464.474965,1.4557613065327e-13,0,-1188.7185929648
1199.0552763819,13583066.559631,1.4684201005025e-13,0,-1199.0552763819
1209.391959799,13721637.66546,1.4810788944724e-13,0,-1209.391959799
1219.7286432161,13860177.499333,1.4937376884422e-13,0,-1219.7286432161
1230.0653266332,13998685.769006,1.5063964824121e-13,0,-1230.0653266332
1240.4020100503,14137162.183104,1.5190552763819e-13,0,-1240.4020100503
1250.7386934673,14275606.451128,1.5317140703518e-13,0,-1250.7386934673
1261.0753768844,14414018.283454,1.5443728643216e-13,0,-1261.0753768844
1271.4120603015,14552397.391338,1.5570316582915e-13,0,-1271.4120603015
1281.7487437186,14690743.486916,1.5696904522613e-13,0,-1281.7487437186
1292.0854271357,14829056.283204,1.5823492462312e-13,0,-1292.0854271357
1302.4221105528,14967335.494103,1.595008040201e-13,0,-1302.4221105528
1312.7587939698,15105580.8344,1.6076668341709e-13,0,-1312.7587939698
1323.0954773869,15243792.019768,1.6203256281407e-13,0,-1323.0954773869
1333.432160804,15381968.76677,1.6329844221106e-13,0,-1333.432160804
1343.7688442211,15520110.792858,1.6456432160804e-13,0,-1343.7688442211
1354.1055276382,15658217.816381,1.6583020100503e-13,0,-1354.1055276382
1364.4422110553,15796289.556577,1.6709608040201e-13,0,-1364.4422110553
1374.7788944724,15934325.733578,1.6836195979899e-13,0,-1374.7788944724
1385.1155778894,16072326.06842,1.6962783919598e-13,0,-1385.1155778894
1395.4522613065,16210290.283032,1.7089371859296e-13,0,-1395.4522613065
1405.7889447236,16348218.100247,1.7215959798995e-13,0,-1405.7889447236
1416.1256281407,16486109.243796,1.7342547738693e-13,0,-1416.1256281407
1426.4623115578,16623963.438314,1.7469135678392e-13,0,-1426.4623115578
1436.7989949749,16761780.409344,1.759572361809e-13,0,-1436.7989949749
1447.135678392,16899559.883329,1.7722311557789e-13,0,-1447.135678392
1457.472361809,17037301.587626,1.7848899497487e-13,0,-1457.472361809
1467.8090452261,17175005.250495,1.7975487437186e-13,0,-1467.8090452261
1478.1457286432,17312670.601109,1.8102075376884e-13,0,-1478.1457286432
1488.4824120603,17450297.36955,1.8228663316583e-13,0,-1488.4824120603
1498.8190954774,17587885.286816,1.8355251256281e-13,0,-1498.8190954774
1509.1557788945,17725434.084816,1.848183919598e-13,0,-1509.1557788945
1519.4924623116,17862943.496374,1.8608427135678e-13,0,-1519.4924623116
1529.8291457286,18000413.255231,1.8735015075377e-13,0,-1529.8291457286
1540.1658291457,18137843.096045,1.8861603015075e-13,0,-1540.1658291457
1550.5025125628,18275232.754392,1.8988190954774e-13,0,-1550.5025125628
1560.8391959799,18412581.966768,1.9114778894472e-13,0,-1560.8391959799
1571.175879397,18549890.470589,1.9241366834171e-13,0,-1571.175879397
1581.5125628141,18687158.004193,1.9367954773869e-13,0,-1581.5125628141
1591.8492462312,18824384.30684,1.9494542713568e-13,0,-1591.8492462312
1602.1859296482,18961569.118715,1.9621130653266e-13,0,-1602.1859296482
1612.5226130653,19098712.180925,1.9747718592965e-13,0,-1612.5226130653
1622.8592964824,19235813.235505,1.9874306532663e-13,0,-1622.8592964824
1633.1959798995,19372872.025414,2.0000894472362e-13,0,-1633.1959798995
1643.5326633166,19509888.294539,2.012748241206e-13,0,-1643.5326633166
1653.8693467337,19646861.787697,2.0254070351759e-13,0,-1653.8693467337
1664.2060301508,19783792.250632,2.0380658291457e-13,0,-1664.2060301508
1674.5427135678,19920679.430017,2.0507246231156e-13,0,-1674.5427135678
1684.8793969849,20057523.073456,2.0633834170854e-13,0,-1684.8793969849
1695.216080402,20194322.929486,2.0760422110553e-13,0,-1695.216080402
1705.5527638191,20331078.747572,2.0887010050251e-13,0,-1705.5527638191
1715.8894472362,20467790.278115,2.101359798995e-13,0,-1715.8894472362
1726.2261306533,20604457.272449,2.1140185929648e-13,0,-1726.2261306533
1736.5628140704,20741079.482839,2.1266773869347e-13,0,-1736.5628140704
1746.8994974874,20877656.662488,2.1393361809045e-13,0,-1746.8994974874
1757.2361809045,21014188.56553,2.1519949748744e-13,0,-1757.2361809045
1767.5728643216,21150674.94704,2.1646537688442e-13,0,-1767.5728643216
1777.9095477387,21287115.563023,2.1773125628141e-13,0,-1777.9095477387
1788.2462311558,21423510.170425,2.1899713567839e-13,0,-1788.2462311558
1798.5829145729,21559858.527131,2.2026301507538e-13,0,-1798.5829145729
1808.9195979899,21696160.391955,2.2152889447236e-13,0,-1808.9195979899
1819.256281407,21832415.524658,2.2279477386935e-13,0,-1819.256281407
1829.5929648241,21968623.685935,2.2406065326633e-13,0,-1829.5929648241
1839.9296482412,22104784.637419,2.2532653266332e-13,0,-1839.9296482412
1850.2663316583,22240898.141687,2.265924120603e-13,0,-1850.2663316583
1860.6030150754,22376963.962249,2.2785829145729e-13,0,-1860.6030150754
1870.9396984925,22512981.863561,2.2912417085427e-13,0,-1870.9396984925
1881.2763819095,22648951.611012,2.3039005025126e-13,0,-1881.2763819095
1891.6130653266,22784872.970944,2.3165592964824e-13,0,-1891.6130653266
1901.9497487437,22920745.710605,2.3292180904523e-13,0,-1901.9497487437
1912.2864321608,23056569.598314,2.3418768844221e-13,0,-1912.2864321608
1922.6231155779,23192344.40278,2.354535678392e-13,0,-1922.6231155779
1932.959798995,23328069.896008,2.3671944723618e-13,0,-1932.959798995
1943.2964824121,23463745.840934,2.3798532663317e-13,0,-1943.2964824121
1953.6331658291,23599372.043888,2.3925120603015e-13,0,-1953.6331658291
1963.9698492462,23734948.132274,2.4051708542714e-13,0,-1963.9698492462
1974.3065326633,23870474.496245,2.4178296482412e-13,0,-1974.3065326633
1984.6432160804,24005948.30199,2.4304884422111e-13,0,-1984.6432160804
1994.9798994975,24141380.367474,2.4431472361809e-13,0,-1994.9798994975
2005.3165829146,24276723.734846,2.4558060301508e-13,0,-2005.3165829146
2015.6532663317,24412176.07203,2.4684648241206e-13,0,-2015.6532663317
2025.9899497487,24546899.090252,2.4811236180905e-13,0,-2025.9899497487
2036.3266331658,24684443.845247,2.4937824120603e-13,0,-2036.3266331658
2046.6633165829,24809760.967747,2.5064412060302e-13,0,-2046.6633165829
2057,24986644.522383,2.5191e-13,0,-2057
