id,p,x,y,z
0,26658121.521287,0,0,-2057
5.179015075377,26741754.887968,4.609361040173,0,-2059.3613529919
10.358030150754,26770983.756538,9.2187220803459,0,-2061.7227059838
15.537045226131,26803045.356117,13.828083120519,0,-2064.0840589757
20.716060301508,26834433.923293,18.437444160692,0,-2066.4454119676
25.895075376884,26865976.866558,23.046805200865,0,-2068.8067649595
31.074090452261,26897478.888249,27.656166241038,0,-2071.1681179514
36.253105527638,26928986.075694,32.265527281211,0,-2073.5294709432
41.432120603015,26960487.548244,36.874888321384,0,-2075.8908239351
46.611135678392,26991985.870326,41.484249361557,0,-2078.252176927
51.790150753769,27023480.433497,46.09361040173,0,-2080.6135299189
56.969165829146,27054971.378087,50.702971441902,0,-2082.9748829108
62.148180904523,27086458.667748,55.312332482075,0,-2085.3362359027
67.327195979899,27117942.307827,59.921693522248,0,-2087.6975888946
72.506211055276,27149422.293833,64.531054562421,0,-2090.0589418865
77.685226130653,27180898.623608,69.140415602594,0,-2092.4202948784
82.86424120603,27212371.294442,73.749776642767,0,-2094.7816478703
88.043256281407,27243840.303761,78.35913768294,0,-2097.1430008622
93.222271356784,27275305.648964,82.968498723113,0,-2099.5043538541
98.401286432161,27306767.327462,87.577859763286,0,-2101.8657068459
103.58030150754,27338225.336663,92.187220803459,0,-2104.2270598378
108.75931658291,27369679.673985,96.796581843632,0,-2106.5884128297
113.93833165829,27401130.336843,101.4059428838,0,-2108.9497658216
119.11734673367,27432577.322662,106.01530392398,0,-2111.3111188135
124.29636180905,27464020.628866,110.62466496415,0,-2113.6724718054
129.47537688442,27495460.252884,115.23402600432,0,-2116.0338247973
134.6543919598,27526896.192149,119.8433870445,0,-2118.3951777892
139.83340703518,27558328.444095,124.45274808467,0,-2120.7565307811
145.01242211055,27589757.006161,129.06210912484,0,-2123.117883773
150.19143718593,27621181.875792,133.67147016502,0,-2125.4792367649
155.37045226131,27652603.050434,138.28083120519,0,-2127.8405897568
160.54946733668,27684020.527533,142.89019224536,0,-2130.2019427486
165.72848241206,27715434.304545,147.49955328553,0,-2132.5632957405
170.90749748744,27746844.378927,152.10891432571,0,-2134.9246487324
176.08651256281,27778250.748136,156.71827536588,0,-2137.2860017243
181.26552763819,27809653.409638,161.32763640605,0,-2139.6473547162
186.44454271357,27841052.3609,165.93699744623,0,-2142.0087077081
191.62355778894,27872447.59939,170.5463584864,0,-2144.3700607
196.80257286432,27903839.122583,175.15571952657,0,-2146.7314136919
201.9815879397,27935226.927957,179.76508056675,0,-2149.0927666838
207.16060301508,27966611.01299,184.37444160692,0,-2151.4541196757
212.33961809045,27997991.37517,188.98380264709,0,-2153.8154726676
217.51863316583,28029368.011981,193.59316368726,0,-2156.1768256595
222.69764824121,28060740.920916,198.20252472744,0,-2158.5381786514
227.87666331658,28092110.099469,202.81188576761,0,-2160.8995316432
233.05567839196,28123475.545137,207.42124680778,0,-2163.2608846351
238.23469346734,28154837.255423,212.03060784796,0,-2165.622237627
243.41370854271,28186195.227829,216.63996888813,0,-2167.9835906189
248.59272361809,28217549.459866,221.2493299283,0,-2170.3449436108
253.77173869347,28248899.949043,225.85869096847,0,-2172.7062966027
258.95075376884,28280246.692876,230.46805200865,0,-2175.0676495946
264.12976884422,28311589.688887,235.07741304882,0,-2177.4290025865
269.3087839196,28342928.934592,239.68677408899,0,-2179.7903555784
274.48779899497,28374264.427521,244.29613512917,0,-2182.1517085703
279.66681407035,28405596.165198,248.90549616934,0,-2184.5130615622
284.84582914573,28436924.14516,253.51485720951,0,-2186.8744145541
290.02484422111,28468248.364941,258.12421824969,0,-2189.2357675459
295.20385929648,28499568.822079,262.73357928986,0,-2191.5971205378
300.38287437186,28530885.514117,267.34294033003,0,-2193.9584735297
305.56188944724,28562198.438602,271.9523013702,0,-2196.3198265216
310.74090452261,28593507.593083,276.56166241038,0,-2198.6811795135
315.91991959799,28624812.975111,281.17102345055,0,-2201.0425325054
321.09893467337,28656114.582243,285.78038449072,0,-2203.4038854973
326.27794974874,28687412.41204,290.3897455309,0,-2205.7652384892
331.45696482412,28718706.462063,294.99910657107,0,-2208.1265914811
336.6359798995,28749996.72988,299.60846761124,0,-2210.487944473
341.81499497487,28781283.21306,304.21782865142,0,-2212.8492974649
346.99401005025,28812565.909177,308.82718969159,0,-2215.2106504568
352.17302512563,28843844.815806,313.43655073176,0,-2217.5720034486
357.352040201,28875119.93053,318.04591177193,0,-2219.9333564405
362.53105527638,28906391.250929,322.65527281211,0,-2222.2947094324
367.71007035176,28937658.774593,327.26463385228,0,-2224.6560624243
372.88908542714,28968922.49911,331.87399489245,0,-2227.0174154162
378.06810050251,29000182.422075,336.48335593263,0,-2229.3787684081
383.24711557789,29031438.541084,341.0927169728,0,-2231.7401214
388.42613065327,29062690.853739,345.70207801297,0,-2234.1014743919
393.60514572864,29093939.357644,350.31143905314,0,-2236.4628273838
398.78416080402,29125184.050404,354.92080009332,0,-2238.8241803757
403.9631758794,29156424.929632,359.53016113349,0,-2241.1855333676
409.14219095477,29187661.992941,364.13952217366,0,-2243.5468863595
414.32120603015,29218895.23795,368.74888321384,0,-2245.9082393514
419.50022110553,29250124.662277,373.35824425401,0,-2248.2695923432
424.6792361809,29281350.26355,377.96760529418,0,-2250.6309453351
429.85825125628,29312572.039392,382.57696633436,0,-2252.992298327
435.03726633166,29343789.98744,387.18632737453,0,-2255.3536513189
440.21628140704,29375004.105325,391.7956884147,0,-2257.7150043108
445.39529648241,29406214.390684,396.40504945487,0,-2260.0763573027
450.57431155779,29437420.841161,401.01441049505,0,-2262.4377102946
455.75332663317,29468623.454399,405.62377153522,0,-2264.7990632865
460.93234170854,29499822.228045,410.23313257539,0,-2267.1604162784
466.11135678392,29531017.159753,414.84249361557,0,-2269.5217692703
471.2903718593,29562208.247176,419.45185465574,0,-2271.8831222622
476.46938693467,29593395.487973,424.06121569591,0,-2274.2444752541
481.64840201005,29624578.879806,428.67057673608,0,-2276.6058282459
486.82741708543,29655758.420339,433.27993777626,0,-2278.9671812378
492.0064321608,29686934.10724,437.88929881643,0,-2281.3285342297
497.18544723618,29718105.938181,442.4986598566,0,-2283.6898872216
502.36446231156,29749273.910838,447.10802089678,0,-2286.0512402135
507.54347738693,29780438.022889,451.71738193695,0,-2288.4125932054
512.72249246231,29811598.272015,456.32674297712,0,-2290.7739461973
517.90150753769,29842754.655903,460.9361040173,0,-2293.1352991892
523.08052261307,29873907.172241,465.54546505747,0,-2295.4966521811
528.25953768844,29905055.818718,470.15482609764,0,-2297.858005173
533.43855276382,29936200.593032,474.76418713781,0,-2300.2193581649
538.6175678392,29967341.492884,479.37354817799,0,-2302.5807111568
543.79658291457,29998478.515971,483.98290921816,0,-2304.9420641486
548.97559798995,30029611.660002,488.59227025833,0,-2307.3034171405
554.15461306533,30060740.922684,493.20163129851,0,-2309.6647701324
559.3336281407,30091866.30173,497.81099233868,0,-2312.0261231243
564.51264321608,30122987.794855,502.42035337885,0,-2314.3874761162
569.69165829146,30154105.399777,507.02971441903,0,-2316.7488291081
574.87067336683,30185219.11422,511.6390754592,0,-2319.1101821
580.04968844221,30216328.93591,516.24843649937,0,-2321.4715350919
585.22870351759,30247434.862572,520.85779753954,0,-2323.8328880838
590.40771859297,30278536.891942,525.46715857972,0,-2326.1942410757
595.58673366834,30309635.021755,530.07651961989,0,-2328.5555940676
600.76574874372,30340729.249749,534.68588066006,0,-2330.9169470595
605.9447638191,30371819.573667,539.29524170024,0,-2333.2783000514
611.12377889447,30402905.991252,543.90460274041,0,-2335.6396530432
616.30279396985,30433988.500259,548.51396378058,0,-2338.0010060351
621.48180904523,30465067.098433,553.12332482075,0,-2340.362359027
626.6608241206,30496141.783535,557.73268586093,0,-2342.7237120189
631.83983919598,30527212.553323,562.3420469011,0,-2345.0850650108
637.01885427136,30558279.405558,566.95140794127,0,-2347.4464180027
642.19786934673,30589342.338006,571.56076898145,0,-2349.8077709946
647.37688442211,30620401.348436,576.17013002162,0,-2352.1691239865
652.55589949749,30651456.434622,580.77949106179,0,-2354.5304769784
657.73491457286,30682507.594337,585.38885210197,0,-2356.8918299703
662.91392964824,30713554.825362,589.99821314214,0,-2359.2531829622
668.09294472362,30744598.125478,594.60757418231,0,-2361.6145359541
673.271959799,30775637.492472,599.21693522248,0,-2363.9758889459
678.45097487437,30806672.924131,603.82629626266,0,-2366.3372419378
683.62998994975,30837704.41825,608.43565730283,0,-2368.6985949297
688.80900502513,30868731.972622,613.045018343,0,-2371.0599479216
693.9880201005,30899755.585049,617.65437938318,0,-2373.4213009135
699.16703517588,30930775.253332,622.26374042335,0,-2375.7826539054
704.34605025126,30961790.975274,626.87310146352,0,-2378.1440068973
709.52506532663,30992802.748687,631.48246250369,0,-2380.5053598892
714.70408040201,31023810.571383,636.09182354387,0,-2382.8667128811
719.88309547739,31054814.441175,640.70118458404,0,-2385.228065873
725.06211055276,31085814.355885,645.31054562421,0,-2387.5894188649
730.24112562814,31116810.313334,649.91990666439,0,-2389.9507718568
735.42014070352,31147802.311347,654.52926770456,0,-2392.3121248486
740.59915577889,31178790.347753,659.13862874473,0,-2394.6734778405
745.77817085427,31209774.420384,663.74798978491,0,-2397.0348308324
750.95718592965,31240754.527077,668.35735082508,0,-2399.3961838243
756.13620100503,31271730.665668,672.96671186525,0,-2401.7575368162
761.3152160804,31302702.834002,677.57607290542,0,-2404.1188898081
766.49423115578,31333671.029922,682.1854339456,0,-2406.4802428
771.67324623116,31364635.251277,686.79479498577,0,-2408.8415957919
776.85226130653,31395595.49592,691.40415602594,0,-2411.2029487838
782.03127638191,31426551.761705,696.01351706612,0,-2413.5643017757
787.21029145729,31457504.046491,700.62287810629,0,-2415.9256547676
792.38930653266,31488452.348139,705.23223914646,0,-2418.2870077595
797.56832160804,31519396.664516,709.84160018663,0,-2420.6483607514
802.74733668342,31550336.99349,714.45096122681,0,-2423.0097137432
807.92635175879,31581273.332932,719.06032226698,0,-2425.3710667351
813.10536683417,31612205.680716,723.66968330715,0,-2427.732419727
818.28438190955,31643134.034721,728.27904434733,0,-2430.0937727189
823.46339698492,31674058.392828,732.8884053875,0,-2432.4551257108
828.6424120603,31704978.752924,737.49776642767,0,-2434.8164787027
833.82142713568,31735895.112896,742.10712746785,0,-2437.1778316946
839.00044221106,31766807.470634,746.71648850802,0,-2439.5391846865
844.17945728643,31797715.824034,751.32584954819,0,-2441.9005376784
849.35847236181,31828620.170993,755.93521058836,0,-2444.2618906703
854.53748743719,31859520.509413,760.54457162854,0,-2446.6232436622
859.71650251256,31890416.837199,765.15393266871,0,-2448.9845966541
864.89551758794,31921309.152257,769.76329370888,0,-2451.3459496459
870.07453266332,31952197.4525,774.37265474906,0,-2453.7073026378
875.25354773869,31983081.735841,778.98201578923,0,-2456.0686556297
880.43256281407,32013962.000198,783.5913768294,0,-2458.4300086216
885.61157788945,32044838.243492,788.20073786958,0,-2460.7913616135
890.79059296482,32075710.463646,792.81009890975,0,-2463.1527146054
895.9696080402,32106578.658588,797.41945994992,0,-2465.5140675973
901.14862311558,32137442.82625,802.02882099009,0,-2467.8754205892
906.32763819095,32168302.964563,806.63818203027,0,-2470.2367735811
911.50665326633,32199159.071466,811.24754307044,0,-2472.598126573
916.68566834171,32230011.1449,815.85690411061,0,-2474.9594795649
921.86468341709,32260859.182808,820.46626515079,0,-2477.3208325568
927.04369849246,32291703.183136,825.07562619096,0,-2479.6821855486
932.22271356784,32322543.143835,829.68498723113,0,-2482.0435385405
937.40172864322,32353379.062858,834.2943482713,0,-2484.4048915324
942.58074371859,32384210.938162,838.90370931148,0,-2486.7662445243
947.75975879397,32415038.767707,843.51307035165,0,-2489.1275975162
952.93877386935,32445862.549451,848.12243139182,0,-2491.4889505081
958.11778894472,32476682.281386,852.731792432,0,-2493.8503035
963.2968040201,32507497.961378,857.34115347217,0,-2496.2116564919
968.47581909548,32538309.587832,861.95051451234,0,-2498.5730094838
973.65483417085,32569117.156892,866.55987555252,0,-2500.9343624757
978.83384924623,32599920.674302,871.16923659269,0,-2503.2957154676
984.01286432161,32630720.105148,875.77859763286,0,-2505.6570684595
989.19187939699,32661515.586822,880.38795867303,0,-2508.0184214513
994.37089447236,32692306.526414,884.99731971321,0,-2510.3797744432
999.54990954774,32723095.427198,889.60668075338,0,-2512.7411274351
1004.7289246231,32753871.664142,894.21604179355,0,-2515.102480427
1009.9079396985,32784680.283092,898.82540283373,0,-2517.4638334189
1015.0869547739,32815330.265358,903.4347638739,0,-2519.8251864108
1020.2659698492,32846631.515153,908.04412491407,0,-2522.1865394027
1025.4449849246,32875150.722114,912.65348595424,0,-2524.5478923946
1030.624,32915439.865225,917.26284699442,0,-2526.9092453865
