id,p,x,y,z
0,32915439.865225,917.26284699442,0,-2526.9092453865
0.0050251256283182,32915200.136932,917.26285314816,0,-2526.9042202646
0.010050251256182,32915139.392634,917.2628593019,0,-2526.8991951428
0.0150753768845,32915072.739876,917.26286545564,0,-2526.8941700209
0.020100502512363,32915007.481918,917.26287160938,0,-2526.889144899
0.025125628140682,32914941.894695,917.26287776312,0,-2526.8841197772
0.030150753769,32914876.385203,917.26288391686,0,-2526.8790946553
0.035175879396863,32914810.857364,917.2628900706,0,-2526.8740695335
0.040201005025182,32914745.333859,917.26289622434,0,-2526.8690444116
0.045226130653045,32914679.809332,917.26290237808,0,-2526.8640192897
0.050251256281363,32914614.285048,917.26290853182,0,-2526.8589941679
0.055276381909681,32914548.76071,917.26291468556,0,-2526.853969046
0.060301507537545,32914483.236387,917.2629208393,0,-2526.8489439242
0.065326633165863,32914417.712063,917.26292699304,0,-2526.8439188023
0.070351758794181,32914352.187741,917.26293314678,0,-2526.8388936804
0.075376884422045,32914286.66342,917.26293930052,0,-2526.8338685586
0.080402010050363,32914221.139102,917.26294545426,0,-2526.8288434367
0.085427135678226,32914155.614785,917.26295160801,0,-2526.8238183149
0.090452261306545,32914090.090469,917.26295776175,0,-2526.818793193
0.095477386934863,32914024.566156,917.26296391549,0,-2526.8137680711
0.10050251256273,32913959.041845,917.26297006923,0,-2526.8087429493
0.10552763819104,32913893.517536,917.26297622297,0,-2526.8037178274
0.11055276381891,32913827.993228,917.26298237671,0,-2526.7986927056
0.11557788944723,32913762.468923,917.26298853045,0,-2526.7936675837
0.12060301507554,32913696.944619,917.26299468419,0,-2526.7886424618
0.12562814070341,32913631.420316,917.26300083793,0,-2526.78361734
0.13065326633173,32913565.896016,917.26300699167,0,-2526.7785922181
0.13567839195959,32913500.371717,917.26301314541,0,-2526.7735670963
0.14070351758791,32913434.847421,917.26301929915,0,-2526.7685419744
0.14572864321623,32913369.323125,917.26302545289,0,-2526.7635168525
0.15075376884409,32913303.798833,917.26303160663,0,-2526.7584917307
0.15577889447241,32913238.27454,917.26303776037,0,-2526.7534666088
0.16080402010027,32913172.750252,917.26304391411,0,-2526.748441487
0.16582914572859,32913107.225964,917.26305006785,0,-2526.7434163651
0.17085427135691,32913041.701677,917.26305622159,0,-2526.7383912432
0.17587939698477,32912976.177394,917.26306237533,0,-2526.7333661214
0.18090452261309,32912910.653111,917.26306852907,0,-2526.7283409995
0.18592964824095,32912845.128831,917.26307468281,0,-2526.7233158777
0.19095477386927,32912779.604553,917.26308083655,0,-2526.7182907558
0.19597989949759,32912714.080276,917.26308699029,0,-2526.7132656339
0.20100502512545,32912648.556001,917.26309314404,0,-2526.7082405121
0.20603015075377,32912583.031728,917.26309929778,0,-2526.7032153902
0.21105527638209,32912517.507456,917.26310545152,0,-2526.6981902684
0.21608040200995,32912451.983187,917.26311160526,0,-2526.6931651465
0.22110552763827,32912386.458919,917.263117759,0,-2526.6881400246
0.22613065326613,32912320.934652,917.26312391274,0,-2526.6831149028
0.23115577889445,32912255.410388,917.26313006648,0,-2526.6780897809
0.23618090452277,32912189.886127,917.26313622022,0,-2526.6730646591
0.24120603015063,32912124.361866,917.26314237396,0,-2526.6680395372
0.24623115577895,32912058.837607,917.2631485277,0,-2526.6630144153
0.25125628140682,32911993.31335,917.26315468144,0,-2526.6579892935
0.25628140703513,32911927.789095,917.26316083518,0,-2526.6529641716
0.26130653266345,32911862.264842,917.26316698892,0,-2526.6479390498
0.26633165829132,32911796.740591,917.26317314266,0,-2526.6429139279
0.27135678391963,32911731.216341,917.2631792964,0,-2526.637888806
0.2763819095475,32911665.692093,917.26318545014,0,-2526.6328636842
0.28140703517582,32911600.167847,917.26319160388,0,-2526.6278385623
0.28643216080413,32911534.643602,917.26319775762,0,-2526.6228134405
0.291457286432,32911469.11936,917.26320391136,0,-2526.6177883186
0.29648241206032,32911403.595119,917.2632100651,0,-2526.6127631967
0.30150753768818,32911338.070881,917.26321621884,0,-2526.6077380749
0.3065326633165,32911272.546643,917.26322237258,0,-2526.602712953
0.31155778894482,32911207.022409,917.26322852632,0,-2526.5976878312
0.31658291457268,32911141.498175,917.26323468007,0,-2526.5926627093
0.321608040201,32911075.973944,917.26324083381,0,-2526.5876375874
0.32663316582932,32911010.449715,917.26324698755,0,-2526.5826124656
0.33165829145718,32910944.925486,917.26325314129,0,-2526.5775873437
0.3366834170855,32910879.40126,917.26325929503,0,-2526.5725622218
0.34170854271336,32910813.877036,917.26326544877,0,-2526.5675371
0.34673366834168,32910748.352813,917.26327160251,0,-2526.5625119781
0.35175879397,32910682.828594,917.26327775625,0,-2526.5574868563
0.35678391959786,32910617.304374,917.26328390999,0,-2526.5524617344
0.36180904522618,32910551.780157,917.26329006373,0,-2526.5474366125
0.36683417085404,32910486.255942,917.26329621747,0,-2526.5424114907
0.37185929648236,32910420.73173,917.26330237121,0,-2526.5373863688
0.37688442211068,32910355.207517,917.26330852495,0,-2526.532361247
0.38190954773854,32910289.683307,917.26331467869,0,-2526.5273361251
0.38693467336686,32910224.1591,917.26332083243,0,-2526.5223110032
0.39195979899472,32910158.634892,917.26332698617,0,-2526.5172858814
0.39698492462304,32910093.110689,917.26333313991,0,-2526.5122607595
0.40201005025136,32910027.586486,917.26333929365,0,-2526.5072356377
0.40703517587922,32909962.062286,917.26334544739,0,-2526.5022105158
0.41206030150754,32909896.538087,917.26335160113,0,-2526.4971853939
0.41708542713541,32909831.01389,917.26335775487,0,-2526.4921602721
0.42211055276372,32909765.489695,917.26336390861,0,-2526.4871351502
0.42713567839204,32909699.965501,917.26337006235,0,-2526.4821100284
0.43216080401991,32909634.441309,917.26337621609,0,-2526.4770849065
0.43718592964822,32909568.917119,917.26338236984,0,-2526.4720597846
0.44221105527654,32909503.392931,917.26338852358,0,-2526.4670346628
0.44723618090441,32909437.868745,917.26339467732,0,-2526.4620095409
0.45226130653272,32909372.344561,917.26340083106,0,-2526.4569844191
0.45728643216059,32909306.820379,917.2634069848,0,-2526.4519592972
0.46231155778891,32909241.296198,917.26341313854,0,-2526.4469341753
0.46733668341722,32909175.772019,917.26341929228,0,-2526.4419090535
0.47236180904509,32909110.247842,917.26342544602,0,-2526.4368839316
0.47738693467341,32909044.723666,917.26343159976,0,-2526.4318588098
0.48241206030127,32908979.199492,917.2634377535,0,-2526.4268336879
0.48743718592959,32908913.675322,917.26344390724,0,-2526.421808566
0.49246231155791,32908848.151152,917.26345006098,0,-2526.4167834442
0.49748743718577,32908782.626984,917.26345621472,0,-2526.4117583223
0.50251256281409,32908717.102818,917.26346236846,0,-2526.4067332005
0.50753768844195,32908651.578652,917.2634685222,0,-2526.4017080786
0.51256281407027,32908586.05449,917.26347467594,0,-2526.3966829567
0.51758793969859,32908520.530329,917.26348082968,0,-2526.3916578349
0.52261306532645,32908455.00617,917.26348698342,0,-2526.386632713
0.52763819095477,32908389.482013,917.26349313716,0,-2526.3816075912
0.53266331658263,32908323.957858,917.2634992909,0,-2526.3765824693
0.53768844221095,32908258.433704,917.26350544464,0,-2526.3715573474
0.54271356783927,32908192.909553,917.26351159838,0,-2526.3665322256
0.54773869346713,32908127.385403,917.26351775212,0,-2526.3615071037
0.55276381909545,32908061.861254,917.26352390587,0,-2526.3564819819
0.55778894472331,32907996.337109,917.26353005961,0,-2526.35145686
0.56281407035163,32907930.812964,917.26353621335,0,-2526.3464317381
0.56783919597995,32907865.288821,917.26354236709,0,-2526.3414066163
0.57286432160781,32907799.76468,917.26354852083,0,-2526.3363814944
0.57788944723613,32907734.240541,917.26355467457,0,-2526.3313563726
0.58291457286445,32907668.716403,917.26356082831,0,-2526.3263312507
0.58793969849231,32907603.192269,917.26356698205,0,-2526.3213061288
0.59296482412063,32907537.668135,917.26357313579,0,-2526.316281007
0.59798994974849,32907472.144004,917.26357928953,0,-2526.3112558851
0.60301507537681,32907406.619873,917.26358544327,0,-2526.3062307633
0.60804020100513,32907341.095746,917.26359159701,0,-2526.3012056414
0.61306532663299,32907275.571619,917.26359775075,0,-2526.2961805195
0.61809045226131,32907210.047493,917.26360390449,0,-2526.2911553977
0.62311557788918,32907144.523372,917.26361005823,0,-2526.2861302758
0.62814070351749,32907078.99925,917.26361621197,0,-2526.281105154
0.63316582914581,32907013.475132,917.26362236571,0,-2526.2760800321
0.63819095477368,32906947.951014,917.26362851945,0,-2526.2710549102
0.64321608040199,32906882.426899,917.26363467319,0,-2526.2660297884
0.64824120602986,32906816.902784,917.26364082693,0,-2526.2610046665
0.65326633165818,32906751.378673,917.26364698067,0,-2526.2559795447
0.65829145728649,32906685.854563,917.26365313441,0,-2526.2509544228
0.66331658291436,32906620.330454,917.26365928815,0,-2526.2459293009
0.66834170854268,32906554.806349,917.2636654419,0,-2526.2409041791
0.67336683417054,32906489.282244,917.26367159564,0,-2526.2358790572
0.67839195979886,32906423.758141,917.26367774938,0,-2526.2308539354
0.68341708542718,32906358.23404,917.26368390312,0,-2526.2258288135
0.68844221105504,32906292.709942,917.26369005686,0,-2526.2208036916
0.69346733668336,32906227.185843,917.2636962106,0,-2526.2157785698
0.69849246231168,32906161.661747,917.26370236434,0,-2526.2107534479
0.70351758793954,32906096.137654,917.26370851808,0,-2526.2057283261
0.70854271356786,32906030.613563,917.26371467182,0,-2526.2007032042
0.71356783919572,32905965.089472,917.26372082556,0,-2526.1956780823
0.71859296482404,32905899.565384,917.2637269793,0,-2526.1906529605
0.72361809045236,32905834.041298,917.26373313304,0,-2526.1856278386
0.72864321608022,32905768.517213,917.26373928678,0,-2526.1806027168
0.73366834170854,32905702.99313,917.26374544052,0,-2526.1755775949
0.7386934673364,32905637.469049,917.26375159426,0,-2526.170552473
0.74371859296472,32905571.94497,917.263757748,0,-2526.1655273512
0.74874371859304,32905506.420893,917.26376390174,0,-2526.1605022293
0.7537688442209,32905440.896817,917.26377005548,0,-2526.1554771075
0.75879396984922,32905375.372743,917.26377620922,0,-2526.1504519856
0.76381909547708,32905309.848671,917.26378236296,0,-2526.1454268637
0.7688442211054,32905244.324601,917.2637885167,0,-2526.1404017419
0.77386934673372,32905178.800533,917.26379467044,0,-2526.13537662
0.77889447236158,32905113.276467,917.26380082418,0,-2526.1303514982
0.7839195979899,32905047.752401,917.26380697793,0,-2526.1253263763
0.78894472361777,32904982.228339,917.26381313167,0,-2526.1203012544
0.79396984924608,32904916.704278,917.26381928541,0,-2526.1152761326
0.7989949748744,32904851.180218,917.26382543915,0,-2526.1102510107
0.80402010050227,32904785.656161,917.26383159289,0,-2526.1052258888
0.80904522613058,32904720.132105,917.26383774663,0,-2526.100200767
0.8140703517589,32904654.608052,917.26384390037,0,-2526.0951756451
0.81909547738677,32904589.083999,917.26385005411,0,-2526.0901505233
0.82412060301508,32904523.559949,917.26385620785,0,-2526.0851254014
0.82914572864295,32904458.035901,917.26386236159,0,-2526.0801002795
0.83417085427127,32904392.511854,917.26386851533,0,-2526.0750751577
0.83919597989958,32904326.987809,917.26387466907,0,-2526.0700500358
0.84422110552745,32904261.463766,917.26388082281,0,-2526.065024914
0.84924623115577,32904195.939725,917.26388697655,0,-2526.0599997921
0.85427135678363,32904130.415686,917.26389313029,0,-2526.0549746702
0.85929648241195,32904064.891648,917.26389928403,0,-2526.0499495484
0.86432160804027,32903999.367612,917.26390543777,0,-2526.0449244265
0.86934673366813,32903933.843579,917.26391159151,0,-2526.0398993047
0.87437185929645,32903868.319547,917.26391774525,0,-2526.0348741828
0.87939698492431,32903802.795516,917.26392389899,0,-2526.0298490609
0.88442211055263,32903737.271488,917.26393005273,0,-2526.0248239391
0.88944723618095,32903671.747462,917.26393620647,0,-2526.0197988172
0.89447236180881,32903606.223436,917.26394236021,0,-2526.0147736954
0.89949748743713,32903540.699414,917.26394851395,0,-2526.0097485735
0.90452261306499,32903475.175392,917.2639546677,0,-2526.0047234516
0.90954773869331,32903409.651373,917.26396082144,0,-2525.9996983298
0.91457286432163,32903344.127355,917.26396697518,0,-2525.9946732079
0.91959798994949,32903278.603339,917.26397312892,0,-2525.9896480861
0.92462311557781,32903213.079325,917.26397928266,0,-2525.9846229642
0.92964824120567,32903147.555313,917.2639854364,0,-2525.9795978423
0.93467336683399,32903082.031303,917.26399159014,0,-2525.9745727205
0.93969849246231,32903016.507295,917.26399774388,0,-2525.9695475986
0.94472361809017,32902950.983291,917.26400389762,0,-2525.9645224768
0.94974874371849,32902885.459274,917.26401005136,0,-2525.9594973549
0.95477386934681,32902819.935318,917.2640162051,0,-2525.954472233
0.95979899497467,32902754.411121,917.26402235884,0,-2525.9494471112
0.96482412060299,32902688.887949,917.26402851258,0,-2525.9444219893
0.96984924623086,32902623.360447,917.26403466632,0,-2525.9393968675
0.97487437185917,32902557.851295,917.26404082006,0,-2525.9343717456
0.97989949748749,32902492.264421,917.2640469738,0,-2525.9293466237
0.98492462311536,32902427.006796,917.26405312754,0,-2525.9243215019
0.98994974874367,32902360.354454,917.26405928128,0,-2525.91929638
0.99497487437154,32902299.61024,917.26406543502,0,-2525.9142712582
0.99999999999986,32902213.838804,917.26407158876,0,-2525.9092461363
