id,p,x,y,z
0,-3331903.4059978,0,0,0
10.336683417085,-3148758.9908252,1.2658793969849e-15,0,-10.336683417085
20.673366834171,-3019047.7180977,2.5317587939698e-15,0,-20.673366834171
31.010050251256,-2876714.9209251,3.7976381909548e-15,0,-31.010050251256
41.346733668342,-2737352.5480685,5.0635175879397e-15,0,-41.346733668342
51.683417085427,-2597280.7503672,6.3293969849246e-15,0,-51.683417085427
62.020100502513,-2457368.5270185,7.5952763819095e-15,0,-62.020100502513
72.356783919598,-2317411.2325268,8.8611557788945e-15,0,-72.356783919598
82.693467336683,-2177457.6221147,1.0127035175879e-14,0,-82.693467336683
93.030150753769,-2037496.6458397,1.1392914572864e-14,0,-93.030150753769
103.36683417085,-1897531.3672009,1.2658793969849e-14,0,-103.36683417085
113.70351758794,-1757561.5185199,1.3924673366834e-14,0,-113.70351758794
124.04020100503,-1617587.6176004,1.5190552763819e-14,0,-124.04020100503
134.37688442211,-1477609.9963031,1.6456432160804e-14,0,-134.37688442211
144.7135678392,-1337629.0297518,1.7722311557789e-14,0,-144.7135678392
155.05025125628,-1197645.0822477,1.8988190954774e-14,0,-155.05025125628
165.38693467337,-1057658.5200257,2.0254070351759e-14,0,-165.38693467337
175.72361809045,-917669.70823765,2.1519949748744e-14,0,-175.72361809045
186.06030150754,-777679.0116539,2.2785829145729e-14,0,-186.06030150754
196.39698492462,-637686.79450035,2.4051708542714e-14,0,-196.39698492462
206.73366834171,-497693.4204812,2.5317587939698e-14,0,-206.73366834171
217.07035175879,-357699.25277472,2.6583467336683e-14,0,-217.07035175879
227.40703517588,-217704.65402317,2.7849346733668e-14,0,-227.40703517588
237.74371859296,-77709.986332417,2.9115226130653e-14,0,-237.74371859296
248.08040201005,62284.388736248,3.0381105527638e-14,0,-248.08040201005
258.41708542714,202278.1101675,3.1646984924623e-14,0,-258.41708542714
268.75376884422,342270.81750202,3.2912864321608e-14,0,-268.75376884422
279.09045226131,482262.15083694,3.4178743718593e-14,0,-279.09045226131
289.42713567839,622251.75082684,3.5444623115578e-14,0,-289.42713567839
299.76381909548,762239.25870085,3.6710502512563e-14,0,-299.76381909548
310.10050251256,902224.31625605,3.7976381909548e-14,0,-310.10050251256
320.43718592965,1042206.565865,3.9242261306533e-14,0,-320.43718592965
330.77386934673,1182185.6504846,4.0508140703518e-14,0,-330.77386934673
341.11055276382,1322161.2136536,4.1774020100503e-14,0,-341.11055276382
351.4472361809,1462132.8995042,4.3039899497487e-14,0,-351.4472361809
361.78391959799,1602100.3527627,4.4305778894472e-14,0,-361.78391959799
372.12060301508,1742063.2187538,4.5571658291457e-14,0,-372.12060301508
382.45728643216,1882021.1434064,4.6837537688442e-14,0,-382.45728643216
392.79396984925,2021973.7732573,4.8103417085427e-14,0,-392.79396984925
403.13065326633,2161920.7554584,4.9369296482412e-14,0,-403.13065326633
413.46733668342,2301861.7377758,5.0635175879397e-14,0,-413.46733668342
423.8040201005,2441796.3685989,5.1901055276382e-14,0,-423.8040201005
434.14070351759,2581724.2969441,5.3166934673367e-14,0,-434.14070351759
444.47738693467,2721645.1724548,5.4432814070352e-14,0,-444.47738693467
454.81407035176,2861558.6454101,5.5698693467337e-14,0,-454.81407035176
465.15075376884,3001464.3667297,5.6964572864322e-14,0,-465.15075376884
475.48743718593,3141361.9879766,5.8230452261307e-14,0,-475.48743718593
485.82412060302,3281251.1613588,5.9496331658291e-14,0,-485.82412060302
496.1608040201,3421131.5397363,6.0762211055276e-14,0,-496.1608040201
506.49748743719,3561002.7766252,6.2028090452261e-14,0,-506.49748743719
516.83417085427,3700864.5262036,6.3293969849246e-14,0,-516.83417085427
527.17085427136,3840716.4433064,6.4559849246231e-14,0,-527.17085427136
537.50753768844,3980558.1834474,6.5825728643216e-14,0,-537.50753768844
547.84422110553,4120389.402801,6.7091608040201e-14,0,-547.84422110553
558.18090452261,4260209.758224,6.8357487437186e-14,0,-558.18090452261
568.5175879397,4400018.9072523,6.9623366834171e-14,0,-568.5175879397
578.85427135678,4539816.5081058,7.0889246231156e-14,0,-578.85427135678
589.19095477387,4679602.219687,7.2155125628141e-14,0,-589.19095477387
599.52763819095,4819375.7016015,7.3421005025126e-14,0,-599.52763819095
609.86432160804,4959136.6141372,7.4686884422111e-14,0,-609.86432160804
620.20100502513,5098884.6182895,7.5952763819095e-14,0,-620.20100502513
630.53768844221,5238619.3757548,7.721864321608e-14,0,-630.53768844221
640.8743718593,5378340.5489349,7.8484522613065e-14,0,-640.8743718593
651.21105527638,5518047.8009453,7.975040201005e-14,0,-651.21105527638
661.54773869347,5657740.7956123,8.1016281407035e-14,0,-661.54773869347
671.88442211055,5797419.1974826,8.228216080402e-14,0,-671.88442211055
682.22110552764,5937082.6718249,8.3548040201005e-14,0,-682.22110552764
692.55778894472,6076730.8846264,8.481391959799e-14,0,-692.55778894472
702.89447236181,6216363.502614,8.6079798994975e-14,0,-702.89447236181
713.23115577889,6355980.1932392,8.734567839196e-14,0,-713.23115577889
723.56783919598,6495580.6246915,8.8611557788945e-14,0,-723.56783919598
733.90452261307,6635164.4658976,8.987743718593e-14,0,-733.90452261307
744.24120603015,6774731.3865328,9.1143316582915e-14,0,-744.24120603015
754.57788944724,6914281.0570111,9.2409195979899e-14,0,-754.57788944724
764.91457286432,7053813.1485004,9.3675075376884e-14,0,-764.91457286432
775.25125628141,7193327.3329191,9.4940954773869e-14,0,-775.25125628141
785.58793969849,7332823.2829471,9.6206834170854e-14,0,-785.58793969849
795.92462311558,7472300.6720176,9.7472713567839e-14,0,-795.92462311558
806.26130653266,7611759.1743288,9.8738592964824e-14,0,-806.26130653266
816.59798994975,7751198.4648447,1.0000447236181e-13,0,-816.59798994975
826.93467336683,7890618.2192998,1.0127035175879e-13,0,-826.93467336683
837.27135678392,8030018.1142006,1.0253623115578e-13,0,-837.27135678392
847.608040201,8169397.8268266,1.0380211055276e-13,0,-847.608040201
857.94472361809,8308757.0352411,1.0506798994975e-13,0,-857.94472361809
868.28140703518,8448095.418283,1.0633386934673e-13,0,-868.28140703518
878.61809045226,8587412.655581,1.0759974874372e-13,0,-878.61809045226
888.95477386935,8726708.4275484,1.088656281407e-13,0,-888.95477386935
899.29145728643,8865982.4153919,1.1013150753769e-13,0,-899.29145728643
909.62814070352,9005234.3011093,1.1139738693467e-13,0,-909.62814070352
919.9648241206,9144463.7674975,1.1266326633166e-13,0,-919.9648241206
930.30150753769,9283670.4981503,1.1392914572864e-13,0,-930.30150753769
940.63819095477,9422854.1774673,1.1519502512563e-13,0,-940.63819095477
950.97487437186,9562014.4906507,1.1646090452261e-13,0,-950.97487437186
961.31155778894,9701151.1237111,1.177267839196e-13,0,-961.31155778894
971.64824120603,9840263.7634706,1.1899266331658e-13,0,-971.64824120603
981.98492462312,9979352.0975661,1.2025854271357e-13,0,-981.98492462312
992.3216080402,10118415.814447,1.2152442211055e-13,0,-992.3216080402
1002.6582914573,10257454.603387,1.2279030150754e-13,0,-1002.6582914573
1012.9949748744,10396468.154478,1.2405618090452e-13,0,-1012.9949748744
1023.3316582915,10535456.158634,1.2532206030151e-13,0,-1023.3316582915
1033.6683417085,10674418.307601,1.2658793969849e-13,0,-1033.6683417085
1044.0050251256,10813354.293952,1.2785381909548e-13,0,-1044.0050251256
1054.3417085427,10952263.811091,1.2911969849246e-13,0,-1054.3417085427
1064.6783919598,11091146.553258,1.3038557788945e-13,0,-1064.6783919598
1075.0150753769,11230002.215529,1.3165145728643e-13,0,-1075.0150753769
1085.351758794,11368830.49382,1.3291733668342e-13,0,-1085.351758794
1095.6884422111,11507631.084887,1.341832160804e-13,0,-1095.6884422111
1106.0251256281,11646403.686332,1.3544909547739e-13,0,-1106.0251256281
1116.3618090452,11785147.996603,1.3671497487437e-13,0,-1116.3618090452
1126.6984924623,11923863.714995,1.3798085427136e-13,0,-1126.6984924623
1137.0351758794,12062550.54166,1.3924673366834e-13,0,-1137.0351758794
1147.3718592965,12201208.177595,1.4051261306533e-13,0,-1147.3718592965
1157.7085427136,12339836.324656,1.4177849246231e-13,0,-1157.7085427136
1168.0452261307,12478434.685558,1.430443718593e-13,0,-1168.0452261307
1178.3819095477,12617002.963876,1.4431025125628e-13,0,-1178.3819095477
1188.7185929648,12755540.864045,1.4557613065327e-13,0,-1188.7185929648
1199.0552763819,12894048.091365,1.4684201005025e-13,0,-1199.0552763819
1209.391959799,13032524.352004,1.4810788944724e-13,0,-1209.391959799
1219.7286432161,13170969.352993,1.4937376884422e-13,0,-1219.7286432161
1230.0653266332,13309382.80224,1.5063964824121e-13,0,-1230.0653266332
1240.4020100503,13447764.40852,1.5190552763819e-13,0,-1240.4020100503
1250.7386934673,13586113.881484,1.5317140703518e-13,0,-1250.7386934673
1261.0753768844,13724430.931661,1.5443728643216e-13,0,-1261.0753768844
1271.4120603015,13862715.270455,1.5570316582915e-13,0,-1271.4120603015
1281.7487437186,14000966.610149,1.5696904522613e-13,0,-1281.7487437186
1292.0854271357,14139184.663911,1.5823492462312e-13,0,-1292.0854271357
1302.4221105528,14277369.145792,1.595008040201e-13,0,-1302.4221105528
1312.7587939698,14415519.770727,1.6076668341709e-13,0,-1312.7587939698
1323.0954773869,14553636.254539,1.6203256281407e-13,0,-1323.0954773869
1333.432160804,14691718.313936,1.6329844221106e-13,0,-1333.432160804
1343.7688442211,14829765.666522,1.6456432160804e-13,0,-1343.7688442211
1354.1055276382,14967778.03079,1.6583020100503e-13,0,-1354.1055276382
1364.4422110553,15105755.126126,1.6709608040201e-13,0,-1364.4422110553
1374.7788944724,15243696.672814,1.6836195979899e-13,0,-1374.7788944724
1385.1155778894,15381602.392034,1.6962783919598e-13,0,-1385.1155778894
1395.4522613065,15519472.005858,1.7089371859296e-13,0,-1395.4522613065
1405.7889447236,15657305.237271,1.7215959798995e-13,0,-1405.7889447236
1416.1256281407,15795101.810148,1.7342547738693e-13,0,-1416.1256281407
1426.4623115578,15932861.449271,1.7469135678392e-13,0,-1426.4623115578
1436.7989949749,16070583.880327,1.759572361809e-13,0,-1436.7989949749
1447.135678392,16208268.829906,1.7722311557789e-13,0,-1447.135678392
1457.472361809,16345916.025509,1.7848899497487e-13,0,-1457.472361809
1467.8090452261,16483525.195541,1.7975487437186e-13,0,-1467.8090452261
1478.1457286432,16621096.069321,1.8102075376884e-13,0,-1478.1457286432
1488.4824120603,16758628.377072,1.8228663316583e-13,0,-1488.4824120603
1498.8190954774,16896121.849939,1.8355251256281e-13,0,-1498.8190954774
1509.1557788945,17033576.219975,1.848183919598e-13,0,-1509.1557788945
1519.4924623116,17170991.220144,1.8608427135678e-13,0,-1519.4924623116
1529.8291457286,17308366.584333,1.8735015075377e-13,0,-1529.8291457286
1540.1658291457,17445702.047343,1.8861603015075e-13,0,-1540.1658291457
1550.5025125628,17582997.344891,1.8988190954774e-13,0,-1550.5025125628
1560.8391959799,17720252.213617,1.9114778894472e-13,0,-1560.8391959799
1571.175879397,17857466.391079,1.9241366834171e-13,0,-1571.175879397
1581.5125628141,17994639.615754,1.9367954773869e-13,0,-1581.5125628141
1591.8492462312,18131771.627046,1.9494542713568e-13,0,-1591.8492462312
1602.1859296482,18268862.165281,1.9621130653266e-13,0,-1602.1859296482
1612.5226130653,18405910.971707,1.9747718592965e-13,0,-1612.5226130653
1622.8592964824,18542917.788497,1.9874306532663e-13,0,-1622.8592964824
1633.1959798995,18679882.358754,2.0000894472362e-13,0,-1633.1959798995
1643.5326633166,18816804.426503,2.012748241206e-13,0,-1643.5326633166
1653.8693467337,18953683.736701,2.0254070351759e-13,0,-1653.8693467337
1664.2060301508,19090520.035231,2.0380658291457e-13,0,-1664.2060301508
1674.5427135678,19227313.068905,2.0507246231156e-13,0,-1674.5427135678
1684.8793969849,19364062.585467,2.0633834170854e-13,0,-1684.8793969849
1695.216080402,19500768.333591,2.0760422110553e-13,0,-1695.216080402
1705.5527638191,19637430.062881,2.0887010050251e-13,0,-1705.5527638191
1715.8894472362,19774047.523878,2.101359798995e-13,0,-1715.8894472362
1726.2261306533,19910620.468048,2.1140185929648e-13,0,-1726.2261306533
1736.5628140704,20047148.647799,2.1266773869347e-13,0,-1736.5628140704
1746.8994974874,20183631.816469,2.1393361809045e-13,0,-1746.8994974874
1757.2361809045,20320069.728329,2.1519949748744e-13,0,-1757.2361809045
1767.5728643216,20456462.138589,2.1646537688442e-13,0,-1767.5728643216
1777.9095477387,20592808.803391,2.1773125628141e-13,0,-1777.9095477387
1788.2462311558,20729109.47982,2.1899713567839e-13,0,-1788.2462311558
1798.5829145729,20865363.925889,2.2026301507538e-13,0,-1798.5829145729
1808.9195979899,21001571.900555,2.2152889447236e-13,0,-1808.9195979899
1819.256281407,21137733.163709,2.2279477386935e-13,0,-1819.256281407
1829.5929648241,21273847.476182,2.2406065326633e-13,0,-1829.5929648241
1839.9296482412,21409914.599742,2.2532653266332e-13,0,-1839.9296482412
1850.2663316583,21545934.297099,2.265924120603e-13,0,-1850.2663316583
1860.6030150754,21681906.331898,2.2785829145729e-13,0,-1860.6030150754
1870.9396984925,21817830.468725,2.2912417085427e-13,0,-1870.9396984925
1881.2763819095,21953706.473106,2.3039005025126e-13,0,-1881.2763819095
1891.6130653266,22089534.111516,2.3165592964824e-13,0,-1891.6130653266
1901.9497487437,22225313.151329,2.3292180904523e-13,0,-1901.9497487437
1912.2864321608,22361043.361005,2.3418768844221e-13,0,-1912.2864321608
1922.6231155779,22496724.509378,2.354535678392e-13,0,-1922.6231155779
1932.959798995,22632356.368586,2.3671944723618e-13,0,-1932.959798995
1943.2964824121,22767938.701703,2.3798532663317e-13,0,-1943.2964824121
1953.6331658291,22903471.315163,2.3925120603015e-13,0,-1953.6331658291
1963.9698492462,23038953.836603,2.4051708542714e-13,0,-1963.9698492462
1974.3065326633,23174386.655882,2.4178296482412e-13,0,-1974.3065326633
1984.6432160804,23309766.941115,2.4304884422111e-13,0,-1984.6432160804
1994.9798994975,23445105.502771,2.4431472361809e-13,0,-1994.9798994975
2005.3165829146,23580355.415452,2.4558060301508e-13,0,-2005.3165829146
2015.6532663317,23715714.21028,2.4684648241206e-13,0,-2015.6532663317
2025.9899497487,23850344.178434,2.4811236180905e-13,0,-2025.9899497487
2036.3266331658,23987793.919851,2.4937824120603e-13,0,-2036.3266331658
2046.6633165829,24113024.466248,2.5064412060302e-13,0,-2046.6633165829
2057,24289785.818082,2.5191e-13,0,-2057
