id,p,x,y,z
0,28293031.271322,1036.966966967,0,-2488.1561561562
0.67529222123322,28288646.313988,1036.3660544967,0,-2487.8480591144
1.3505844424664,28285542.722718,1035.7651420265,0,-2487.5399620727
2.0258766636996,28282136.892583,1035.1642295562,0,-2487.2318650309
2.7011688849327,28278802.673615,1034.563317086,0,-2486.9237679891
3.3764611061659,28275451.811911,1033.9624046157,0,-2486.6156709474
4.0517533273991,28272105.141946,1033.3614921454,0,-2486.3075739056
4.7270455486323,28268757.745189,1032.7605796752,0,-2485.9994768638
5.4023377698655,28265410.782614,1032.1596672049,0,-2485.6913798221
6.0776299910987,28262063.979974,1031.5587547347,0,-2485.3832827803
6.7529222123317,28258717.401836,1030.9578422644,0,-2485.0751857385
7.428214433565,28255371.032781,1030.3569297941,0,-2484.7670886968
8.1035066547982,28252024.876271,1029.7560173239,0,-2484.458991655
8.7787988760314,28248678.931314,1029.1551048536,0,-2484.1508946132
9.4540910972646,28245333.197965,1028.5541923834,0,-2483.8427975715
10.129383318498,28241987.676035,1027.9532799131,0,-2483.5347005297
10.804675539731,28238642.365396,1027.3523674429,0,-2483.2266034879
11.479967760964,28235297.265897,1026.7514549726,0,-2482.9185064462
12.155259982197,28231952.377399,1026.1505425023,0,-2482.6104094044
12.83055220343,28228607.69976,1025.5496300321,0,-2482.3023123626
13.505844424664,28225263.232839,1024.9487175618,0,-2481.9942153209
14.181136645897,28221918.97649,1024.3478050916,0,-2481.6861182791
14.85642886713,28218574.930573,1023.7468926213,0,-2481.3780212374
15.531721088363,28215231.094946,1023.145980151,0,-2481.0699241956
16.207013309596,28211887.469466,1022.5450676808,0,-2480.7618271538
16.88230553083,28208544.053992,1021.9441552105,0,-2480.4537301121
17.557597752063,28205200.848382,1021.3432427403,0,-2480.1456330703
18.232889973296,28201857.852495,1020.74233027,0,-2479.8375360285
18.908182194529,28198515.066188,1020.1414177997,0,-2479.5294389868
19.583474415762,28195172.48932,1019.5405053295,0,-2479.221341945
20.258766636995,28191830.12175,1018.9395928592,0,-2478.9132449032
20.934058858229,28188487.963336,1018.338680389,0,-2478.6051478615
21.609351079462,28185146.013937,1017.7377679187,0,-2478.2970508197
22.284643300695,28181804.27341,1017.1368554484,0,-2477.9889537779
22.959935521928,28178462.741616,1016.5359429782,0,-2477.6808567362
23.635227743161,28175121.418414,1015.9350305079,0,-2477.3727596944
24.310519964395,28171780.303663,1015.3341180377,0,-2477.0646626526
24.985812185628,28168439.397221,1014.7332055674,0,-2476.7565656109
25.661104406861,28165098.698947,1014.1322930971,0,-2476.4484685691
26.336396628094,28161758.2087,1013.5313806269,0,-2476.1403715273
27.011688849327,28158417.926341,1012.9304681566,0,-2475.8322744856
27.68698107056,28155077.851729,1012.3295556864,0,-2475.5241774438
28.362273291794,28151737.984724,1011.7286432161,0,-2475.216080402
29.037565513027,28148398.325183,1011.1277307458,0,-2474.9079833603
29.71285773426,28145058.872968,1010.5268182756,0,-2474.5998863185
30.388149955493,28141719.627939,1009.9259058053,0,-2474.2917892767
31.063442176726,28138380.589953,1009.3249933351,0,-2473.983692235
31.738734397959,28135041.758874,1008.7240808648,0,-2473.6755951932
32.414026619193,28131703.13456,1008.1231683946,0,-2473.3674981514
33.089318840426,28128364.716869,1007.5222559243,0,-2473.0594011097
33.764611061659,28125026.505665,1006.921343454,0,-2472.7513040679
34.439903282892,28121688.500805,1006.3204309838,0,-2472.4432070261
35.115195504125,28118350.702151,1005.7195185135,0,-2472.1351099844
35.790487725359,28115013.109564,1005.1186060433,0,-2471.8270129426
36.465779946592,28111675.722902,1004.517693573,0,-2471.5189159008
37.141072167825,28108338.542029,1003.9167811027,0,-2471.2108188591
37.816364389058,28105001.566803,1003.3158686325,0,-2470.9027218173
38.491656610292,28101664.797086,1002.7149561622,0,-2470.5946247755
39.166948831525,28098328.232738,1002.114043692,0,-2470.2865277338
39.842241052758,28094991.87362,1001.5131312217,0,-2469.978430692
40.517533273991,28091655.719593,1000.9122187514,0,-2469.6703336503
41.192825495224,28088319.77052,1000.3113062812,0,-2469.3622366085
41.868117716457,28084984.026258,999.71039381092,0,-2469.0541395667
42.543409937691,28081648.486671,999.10948134066,0,-2468.746042525
43.218702158924,28078313.151621,998.5085688704,0,-2468.4379454832
43.893994380157,28074978.020967,997.90765640014,0,-2468.1298484414
44.56928660139,28071643.094572,997.30674392988,0,-2467.8217513997
45.244578822623,28068308.372299,996.70583145962,0,-2467.5136543579
45.919871043856,28064973.854006,996.10491898936,0,-2467.2055573161
46.59516326509,28061639.539558,995.50400651911,0,-2466.8974602744
47.270455486323,28058305.428815,994.90309404885,0,-2466.5893632326
47.945747707556,28054971.521638,994.30218157859,0,-2466.2812661908
48.621039928789,28051637.817891,993.70126910833,0,-2465.9731691491
49.296332150022,28048304.317435,993.10035663807,0,-2465.6650721073
49.971624371256,28044971.020133,992.49944416781,0,-2465.3569750655
50.646916592489,28041637.925846,991.89853169755,0,-2465.0488780238
51.322208813722,28038305.034436,991.29761922729,0,-2464.740780982
51.997501034955,28034972.345767,990.69670675703,0,-2464.4326839402
52.672793256188,28031639.8597,990.09579428677,0,-2464.1245868985
53.348085477421,28028307.576099,989.49488181651,0,-2463.8164898567
54.023377698655,28024975.494825,988.89396934625,0,-2463.5083928149
54.698669919888,28021643.615741,988.29305687599,0,-2463.2002957732
55.373962141121,28018311.93871,987.69214440573,0,-2462.8921987314
56.049254362354,28014980.463595,987.09123193547,0,-2462.5841016896
56.724546583587,28011649.190259,986.49031946521,0,-2462.2760046479
57.399838804821,28008318.118564,985.88940699496,0,-2461.9679076061
58.075131026054,28004987.248374,985.2884945247,0,-2461.6598105643
58.750423247287,28001656.579551,984.68758205444,0,-2461.3517135226
59.42571546852,27998326.11196,984.08666958418,0,-2461.0436164808
60.101007689753,27994995.845462,983.48575711392,0,-2460.735519439
60.776299910986,27991665.779924,982.88484464366,0,-2460.4274223973
61.45159213222,27988335.915207,982.2839321734,0,-2460.1193253555
62.126884353453,27985006.251173,981.68301970314,0,-2459.8112283137
62.802176574686,27981676.787688,981.08210723288,0,-2459.503131272
63.477468795919,27978347.524615,980.48119476262,0,-2459.1950342302
64.152761017152,27975018.461817,979.88028229236,0,-2458.8869371884
64.828053238385,27971689.59916,979.2793698221,0,-2458.5788401467
65.503345459619,27968360.936506,978.67845735184,0,-2458.2707431049
66.178637680852,27965032.47372,978.07754488158,0,-2457.9626460631
66.853929902085,27961704.210664,977.47663241132,0,-2457.6545490214
67.529222123318,27958376.147205,976.87571994107,0,-2457.3464519796
68.204514344551,27955048.283206,976.27480747081,0,-2457.0383549379
68.879806565785,27951720.618531,975.67389500055,0,-2456.7302578961
69.555098787018,27948393.153045,975.07298253029,0,-2456.4221608543
70.230391008251,27945065.886611,974.47207006003,0,-2456.1140638126
70.905683229484,27941738.819097,973.87115758977,0,-2455.8059667708
71.580975450717,27938411.950365,973.27024511951,0,-2455.497869729
72.25626767195,27935085.280279,972.66933264925,0,-2455.1897726873
72.931559893184,27931758.808703,972.06842017899,0,-2454.8816756455
73.606852114417,27928432.535506,971.46750770873,0,-2454.5735786037
74.28214433565,27925106.460552,970.86659523847,0,-2454.265481562
74.957436556883,27921780.583702,970.26568276821,0,-2453.9573845202
75.632728778116,27918454.904825,969.66477029795,0,-2453.6492874784
76.30802099935,27915129.423786,969.06385782769,0,-2453.3411904367
76.983313220583,27911804.140447,968.46294535743,0,-2453.0330933949
77.658605441816,27908479.054676,967.86203288718,0,-2452.7249963531
78.333897663049,27905154.166338,967.26112041692,0,-2452.4168993114
79.009189884282,27901829.475299,966.66020794666,0,-2452.1088022696
79.684482105515,27898504.981423,966.0592954764,0,-2451.8007052278
80.359774326749,27895180.684577,965.45838300614,0,-2451.4926081861
81.035066547982,27891856.584627,964.85747053588,0,-2451.1845111443
81.710358769215,27888532.681437,964.25655806562,0,-2450.8764141025
82.385650990448,27885208.974874,963.65564559536,0,-2450.5683170608
83.060943211681,27881885.464806,963.0547331251,0,-2450.260220019
83.736235432914,27878562.151094,962.45382065484,0,-2449.9521229772
84.411527654148,27875239.033608,961.85290818458,0,-2449.6440259355
85.086819875381,27871916.112214,961.25199571432,0,-2449.3359288937
85.762112096614,27868593.386775,960.65108324406,0,-2449.0278318519
86.437404317847,27865270.857162,960.0501707738,0,-2448.7197348102
87.112696539081,27861948.523239,959.44925830354,0,-2448.4116377684
87.787988760314,27858626.384873,958.84834583328,0,-2448.1035407266
88.463280981547,27855304.441929,958.24743336303,0,-2447.7954436849
89.13857320278,27851982.694275,957.64652089277,0,-2447.4873466431
89.813865424013,27848661.141778,957.04560842251,0,-2447.1792496013
90.489157645246,27845339.784304,956.44469595225,0,-2446.8711525596
91.16444986648,27842018.62172,955.84378348199,0,-2446.5630555178
91.839742087713,27838697.653894,955.24287101173,0,-2446.254958476
92.515034308946,27835376.880692,954.64195854147,0,-2445.9468614343
93.190326530179,27832056.30198,954.04104607121,0,-2445.6387643925
93.865618751412,27828735.917627,953.44013360095,0,-2445.3306673507
94.540910972646,27825415.7275,952.83922113069,0,-2445.022570309
95.216203193879,27822095.731466,952.23830866043,0,-2444.7144732672
95.891495415112,27818775.929392,951.63739619017,0,-2444.4063762255
96.566787636345,27815456.321145,951.03648371991,0,-2444.0982791837
97.242079857578,27812136.906595,950.43557124965,0,-2443.7901821419
97.917372078811,27808817.685607,949.83465877939,0,-2443.4820851002
98.592664300045,27805498.658049,949.23374630914,0,-2443.1739880584
99.267956521278,27802179.823791,948.63283383888,0,-2442.8658910166
99.943248742511,27798861.182697,948.03192136862,0,-2442.5577939749
100.61854096374,27795542.734639,947.43100889836,0,-2442.2496969331
101.29383318498,27792224.479482,946.8300964281,0,-2441.9415998913
101.96912540621,27788906.417097,946.22918395784,0,-2441.6335028496
102.64441762744,27785588.547348,945.62827148758,0,-2441.3254058078
103.31970984868,27782270.870108,945.02735901732,0,-2441.017308766
103.99500206991,27778953.385241,944.42644654706,0,-2440.7092117243
104.67029429114,27775636.092618,943.8255340768,0,-2440.4011146825
105.34558651238,27772318.992107,943.22462160654,0,-2440.0930176407
106.02087873361,27769002.083576,942.62370913628,0,-2439.784920599
106.69617095484,27765685.366894,942.02279666602,0,-2439.4768235572
107.37146317608,27762368.84193,941.42188419576,0,-2439.1687265154
108.04675539731,27759052.508551,940.8209717255,0,-2438.8606294737
108.72204761854,27755736.366628,940.22005925525,0,-2438.5525324319
109.39733983978,27752420.416028,939.61914678499,0,-2438.2444353901
110.07263206101,27749104.656622,939.01823431473,0,-2437.9363383484
110.74792428224,27745789.088278,938.41732184447,0,-2437.6282413066
111.42321650348,27742473.710865,937.81640937421,0,-2437.3201442648
112.09850872471,27739158.524251,937.21549690395,0,-2437.0120472231
112.77380094594,27735843.528307,936.61458443369,0,-2436.7039501813
113.44909316717,27732528.722904,936.01367196343,0,-2436.3958531395
114.12438538841,27729214.107908,935.41275949317,0,-2436.0877560978
114.79967760964,27725899.683188,934.81184702291,0,-2435.779659056
115.47496983087,27722585.448617,934.21093455265,0,-2435.4715620142
116.15026205211,27719271.404063,933.61002208239,0,-2435.1634649725
116.82555427334,27715957.549396,933.00910961213,0,-2434.8553679307
117.50084649457,27712643.884484,932.40819714187,0,-2434.5472708889
118.17613871581,27709330.4092,931.80728467161,0,-2434.2391738472
118.85143093704,27706017.123411,931.20637220135,0,-2433.9310768054
119.52672315827,27702704.02699,930.6054597311,0,-2433.6229797636
120.20201537951,27699391.119804,930.00454726084,0,-2433.3148827219
120.87730760074,27696078.401724,929.40363479058,0,-2433.0067856801
121.55259982197,27692765.872622,928.80272232032,0,-2432.6986886384
122.22789204321,27689453.532367,928.20180985006,0,-2432.3905915966
122.90318426444,27686141.380828,927.6008973798,0,-2432.0824945548
123.57847648567,27682829.417878,926.99998490954,0,-2431.7743975131
124.25376870691,27679517.643386,926.39907243928,0,-2431.4663004713
124.92906092814,27676206.057221,925.79815996902,0,-2431.1582034295
125.60435314937,27672894.659265,925.19724749876,0,-2430.8501063878
126.27964537061,27669583.449342,924.5963350285,0,-2430.542009346
126.95493759184,27666272.42752,923.99542255824,0,-2430.2339123042
127.63022981307,27662961.592828,923.39451008798,0,-2429.9258152625
128.3055220343,27659650.948706,922.79359761772,0,-2429.6177182207
128.98081425554,27656340.47992,922.19268514746,0,-2429.3096211789
129.65610647677,27653030.250278,921.59177267721,0,-2429.0015241372
130.331398698,27649719.988956,920.99086020695,0,-2428.6934270954
131.00669091924,27646410.841797,920.38994773669,0,-2428.3853300536
131.68198314047,27643097.956708,919.78903526643,0,-2428.0772330119
132.3572753617,27639801.875851,919.18812279617,0,-2427.7691359701
133.03256758294,27636435.612088,918.58721032591,0,-2427.4610389283
133.70785980417,27633367.520914,917.98629785565,0,-2427.1529418866
134.3831520254,27662439.37984,917.38538538539,0,-2426.8448448448
