id,p,x,y,z
0,29521130.475463,1036.6235012545,0,-2588.0571215443
0.0050251256282488,29521880.437337,1036.6235185311,0,-2588.0520964484
0.010050251256498,29521827.2939,1036.6235358077,0,-2588.0470713524
0.015075376884293,29521768.98075,1036.6235530842,0,-2588.0420462565
0.020100502512541,29521711.888005,1036.6235703608,0,-2588.0370211606
0.02512562814079,29521654.507164,1036.6235876374,0,-2588.0319960647
0.03015075376904,29521597.194334,1036.623604914,0,-2588.0269709687
0.035175879396834,29521539.865451,1036.6236221906,0,-2588.0219458728
0.040201005025083,29521482.54036,1036.6236394672,0,-2588.0169207769
0.045226130653332,29521425.214374,1036.6236567438,0,-2588.0118956809
0.050251256281581,29521367.888602,1036.6236740204,0,-2588.006870585
0.055276381909375,29521310.562781,1036.623691297,0,-2588.0018454891
0.060301507537624,29521253.236973,1036.6237085736,0,-2587.9968203931
0.065326633165874,29521195.911165,1036.6237258502,0,-2587.9917952972
0.070351758794123,29521138.585358,1036.6237431268,0,-2587.9867702013
0.075376884421917,29521081.259552,1036.6237604033,0,-2587.9817451054
0.080402010050166,29521023.933747,1036.6237776799,0,-2587.9767200094
0.085427135678415,29520966.607944,1036.6237949565,0,-2587.9716949135
0.090452261306664,29520909.282142,1036.6238122331,0,-2587.9666698176
0.095477386934458,29520851.956341,1036.6238295097,0,-2587.9616447216
0.10050251256271,29520794.630543,1036.6238467863,0,-2587.9566196257
0.10552763819096,29520737.304745,1036.6238640629,0,-2587.9515945298
0.11055276381921,29520679.978949,1036.6238813395,0,-2587.9465694339
0.115577889447,29520622.653154,1036.6238986161,0,-2587.9415443379
0.12060301507525,29520565.327361,1036.6239158927,0,-2587.936519242
0.1256281407035,29520508.001569,1036.6239331693,0,-2587.9314941461
0.13065326633175,29520450.675778,1036.6239504458,0,-2587.9264690501
0.13567839195954,29520393.349988,1036.6239677224,0,-2587.9214439542
0.14070351758779,29520336.0242,1036.623984999,0,-2587.9164188583
0.14572864321604,29520278.698414,1036.6240022756,0,-2587.9113937624
0.15075376884429,29520221.372629,1036.6240195522,0,-2587.9063686664
0.15577889447254,29520164.046845,1036.6240368288,0,-2587.9013435705
0.16080402010033,29520106.721062,1036.6240541054,0,-2587.8963184746
0.16582914572858,29520049.395282,1036.624071382,0,-2587.8912933786
0.17085427135683,29519992.069501,1036.6240886586,0,-2587.8862682827
0.17587939698508,29519934.743723,1036.6241059352,0,-2587.8812431868
0.18090452261287,29519877.417947,1036.6241232118,0,-2587.8762180908
0.18592964824112,29519820.092171,1036.6241404884,0,-2587.8711929949
0.19095477386937,29519762.766397,1036.6241577649,0,-2587.866167899
0.19597989949762,29519705.440624,1036.6241750415,0,-2587.8611428031
0.20100502512541,29519648.114852,1036.6241923181,0,-2587.8561177071
0.20603015075366,29519590.789083,1036.6242095947,0,-2587.8510926112
0.21105527638191,29519533.463313,1036.6242268713,0,-2587.8460675153
0.21608040201016,29519476.137547,1036.6242441479,0,-2587.8410424193
0.22110552763796,29519418.81178,1036.6242614245,0,-2587.8360173234
0.22613065326621,29519361.486015,1036.6242787011,0,-2587.8309922275
0.23115577889445,29519304.160253,1036.6242959777,0,-2587.8259671316
0.2361809045227,29519246.834491,1036.6243132543,0,-2587.8209420356
0.2412060301505,29519189.50873,1036.6243305309,0,-2587.8159169397
0.24623115577875,29519132.182971,1036.6243478074,0,-2587.8108918438
0.251256281407,29519074.857214,1036.624365084,0,-2587.8058667478
0.25628140703524,29519017.531458,1036.6243823606,0,-2587.8008416519
0.26130653266304,29518960.205702,1036.6243996372,0,-2587.795816556
0.26633165829129,29518902.879949,1036.6244169138,0,-2587.7907914601
0.27135678391954,29518845.554196,1036.6244341904,0,-2587.7857663641
0.27638190954779,29518788.228445,1036.624451467,0,-2587.7807412682
0.28140703517558,29518730.902696,1036.6244687436,0,-2587.7757161723
0.28643216080383,29518673.576948,1036.6244860202,0,-2587.7706910763
0.29145728643208,29518616.251201,1036.6245032968,0,-2587.7656659804
0.29648241206033,29518558.925457,1036.6245205734,0,-2587.7606408845
0.30150753768858,29518501.599712,1036.62453785,0,-2587.7556157885
0.30653266331637,29518444.27397,1036.6245551265,0,-2587.7505906926
0.31155778894462,29518386.948228,1036.6245724031,0,-2587.7455655967
0.31658291457287,29518329.622488,1036.6245896797,0,-2587.7405405008
0.32160804020112,29518272.296751,1036.6246069563,0,-2587.7355154048
0.32663316582891,29518214.971014,1036.6246242329,0,-2587.7304903089
0.33165829145716,29518157.645278,1036.6246415095,0,-2587.725465213
0.33668341708541,29518100.319542,1036.6246587861,0,-2587.720440117
0.34170854271366,29518042.99381,1036.6246760627,0,-2587.7154150211
0.34673366834145,29517985.668078,1036.6246933393,0,-2587.7103899252
0.3517587939697,29517928.342348,1036.6247106159,0,-2587.7053648293
0.35678391959795,29517871.01662,1036.6247278925,0,-2587.7003397333
0.3618090452262,29517813.690892,1036.624745169,0,-2587.6953146374
0.366834170854,29517756.365166,1036.6247624456,0,-2587.6902895415
0.37185929648224,29517699.039442,1036.6247797222,0,-2587.6852644455
0.37688442211049,29517641.713718,1036.6247969988,0,-2587.6802393496
0.38190954773874,29517584.387996,1036.6248142754,0,-2587.6752142537
0.38693467336654,29517527.062275,1036.624831552,0,-2587.6701891577
0.39195979899479,29517469.736556,1036.6248488286,0,-2587.6651640618
0.39698492462303,29517412.410838,1036.6248661052,0,-2587.6601389659
0.40201005025128,29517355.085122,1036.6248833818,0,-2587.65511387
0.40703517587908,29517297.759407,1036.6249006584,0,-2587.650088774
0.41206030150733,29517240.433692,1036.624917935,0,-2587.6450636781
0.41708542713558,29517183.107981,1036.6249352116,0,-2587.6400385822
0.42211055276383,29517125.782269,1036.6249524881,0,-2587.6350134862
0.42713567839162,29517068.45656,1036.6249697647,0,-2587.6299883903
0.43216080401987,29517011.130852,1036.6249870413,0,-2587.6249632944
0.43718592964812,29516953.805145,1036.6250043179,0,-2587.6199381985
0.44221105527637,29516896.47944,1036.6250215945,0,-2587.6149131025
0.44723618090462,29516839.153736,1036.6250388711,0,-2587.6098880066
0.45226130653241,29516781.828033,1036.6250561477,0,-2587.6048629107
0.45728643216066,29516724.502331,1036.6250734243,0,-2587.5998378147
0.46231155778891,29516667.176632,1036.6250907009,0,-2587.5948127188
0.46733668341716,29516609.850933,1036.6251079775,0,-2587.5897876229
0.47236180904495,29516552.525236,1036.6251252541,0,-2587.584762527
0.4773869346732,29516495.19954,1036.6251425307,0,-2587.579737431
0.48241206030145,29516437.873847,1036.6251598072,0,-2587.5747123351
0.4874371859297,29516380.548153,1036.6251770838,0,-2587.5696872392
0.49246231155749,29516323.22246,1036.6251943604,0,-2587.5646621432
0.49748743718574,29516265.89677,1036.625211637,0,-2587.5596370473
0.50251256281399,29516208.571082,1036.6252289136,0,-2587.5546119514
0.50753768844224,29516151.245395,1036.6252461902,0,-2587.5495868554
0.51256281407003,29516093.919708,1036.6252634668,0,-2587.5445617595
0.51758793969828,29516036.594023,1036.6252807434,0,-2587.5395366636
0.52261306532653,29515979.268341,1036.62529802,0,-2587.5345115677
0.52763819095478,29515921.942658,1036.6253152966,0,-2587.5294864717
0.53266331658258,29515864.616978,1036.6253325732,0,-2587.5244613758
0.53768844221083,29515807.291297,1036.6253498497,0,-2587.5194362799
0.54271356783907,29515749.965621,1036.6253671263,0,-2587.5144111839
0.54773869346732,29515692.639943,1036.6253844029,0,-2587.509386088
0.55276381909512,29515635.314268,1036.6254016795,0,-2587.5043609921
0.55778894472337,29515577.988595,1036.6254189561,0,-2587.4993358962
0.56281407035162,29515520.662922,1036.6254362327,0,-2587.4943108002
0.56783919597986,29515463.33725,1036.6254535093,0,-2587.4892857043
0.57286432160811,29515406.011581,1036.6254707859,0,-2587.4842606084
0.57788944723591,29515348.685913,1036.6254880625,0,-2587.4792355124
0.58291457286416,29515291.360246,1036.6255053391,0,-2587.4742104165
0.58793969849241,29515234.03458,1036.6255226157,0,-2587.4691853206
0.59296482412066,29515176.708916,1036.6255398923,0,-2587.4641602247
0.59798994974845,29515119.383253,1036.6255571688,0,-2587.4591351287
0.6030150753767,29515062.057592,1036.6255744454,0,-2587.4541100328
0.60804020100495,29515004.731931,1036.625591722,0,-2587.4490849369
0.6130653266332,29514947.406273,1036.6256089986,0,-2587.4440598409
0.61809045226099,29514890.080616,1036.6256262752,0,-2587.439034745
0.62311557788924,29514832.75496,1036.6256435518,0,-2587.4340096491
0.62814070351749,29514775.429306,1036.6256608284,0,-2587.4289845531
0.63316582914574,29514718.103652,1036.625678105,0,-2587.4239594572
0.63819095477353,29514660.778,1036.6256953816,0,-2587.4189343613
0.64321608040178,29514603.452349,1036.6257126582,0,-2587.4139092654
0.64824120603003,29514546.126701,1036.6257299348,0,-2587.4088841694
0.65326633165828,29514488.801053,1036.6257472113,0,-2587.4038590735
0.65829145728607,29514431.475408,1036.6257644879,0,-2587.3988339776
0.66331658291432,29514374.149762,1036.6257817645,0,-2587.3938088816
0.66834170854257,29514316.824118,1036.6257990411,0,-2587.3887837857
0.67336683417082,29514259.498476,1036.6258163177,0,-2587.3837586898
0.67839195979862,29514202.172836,1036.6258335943,0,-2587.3787335939
0.68341708542686,29514144.847196,1036.6258508709,0,-2587.3737084979
0.68844221105511,29514087.521557,1036.6258681475,0,-2587.368683402
0.69346733668336,29514030.195921,1036.6258854241,0,-2587.3636583061
0.69849246231116,29513972.870286,1036.6259027007,0,-2587.3586332101
0.70351758793941,29513915.544652,1036.6259199773,0,-2587.3536081142
0.70854271356766,29513858.219019,1036.6259372539,0,-2587.3485830183
0.7135678391959,29513800.893388,1036.6259545304,0,-2587.3435579223
0.71859296482415,29513743.567759,1036.625971807,0,-2587.3385328264
0.72361809045195,29513686.24213,1036.6259890836,0,-2587.3335077305
0.7286432160802,29513628.916503,1036.6260063602,0,-2587.3284826346
0.73366834170845,29513571.590877,1036.6260236368,0,-2587.3234575386
0.73869346733669,29513514.265254,1036.6260409134,0,-2587.3184324427
0.74371859296449,29513456.93963,1036.62605819,0,-2587.3134073468
0.74874371859274,29513399.614008,1036.6260754666,0,-2587.3083822508
0.75376884422099,29513342.288388,1036.6260927432,0,-2587.3033571549
0.75879396984924,29513284.962769,1036.6261100198,0,-2587.298332059
0.76381909547703,29513227.637153,1036.6261272964,0,-2587.2933069631
0.76884422110528,29513170.311536,1036.6261445729,0,-2587.2882818671
0.77386934673353,29513112.985921,1036.6261618495,0,-2587.2832567712
0.77889447236178,29513055.660307,1036.6261791261,0,-2587.2782316753
0.78391959798957,29512998.334696,1036.6261964027,0,-2587.2732065793
0.78894472361782,29512941.009086,1036.6262136793,0,-2587.2681814834
0.79396984924607,29512883.683476,1036.6262309559,0,-2587.2631563875
0.79899497487432,29512826.357869,1036.6262482325,0,-2587.2581312916
0.80402010050211,29512769.032262,1036.6262655091,0,-2587.2531061956
0.80904522613036,29512711.706657,1036.6262827857,0,-2587.2480810997
0.81407035175861,29512654.381053,1036.6263000623,0,-2587.2430560038
0.81909547738686,29512597.055451,1036.6263173389,0,-2587.2380309078
0.82412060301465,29512539.72985,1036.6263346155,0,-2587.2330058119
0.8291457286429,29512482.40425,1036.626351892,0,-2587.227980716
0.83417085427115,29512425.078652,1036.6263691686,0,-2587.22295562
0.8391959798994,29512367.753057,1036.6263864452,0,-2587.2179305241
0.8442211055272,29512310.42746,1036.6264037218,0,-2587.2129054282
0.84924623115545,29512253.101867,1036.6264209984,0,-2587.2078803323
0.85427135678369,29512195.776274,1036.626438275,0,-2587.2028552363
0.85929648241194,29512138.450682,1036.6264555516,0,-2587.1978301404
0.86432160804019,29512081.125092,1036.6264728282,0,-2587.1928050445
0.86934673366799,29512023.799504,1036.6264901048,0,-2587.1877799485
0.87437185929624,29511966.473916,1036.6265073814,0,-2587.1827548526
0.87939698492448,29511909.148331,1036.626524658,0,-2587.1777297567
0.88442211055273,29511851.822747,1036.6265419345,0,-2587.1727046608
0.88944723618053,29511794.497162,1036.6265592111,0,-2587.1676795648
0.89447236180878,29511737.171581,1036.6265764877,0,-2587.1626544689
0.89949748743703,29511679.846002,1036.6265937643,0,-2587.157629373
0.90452261306528,29511622.520422,1036.6266110409,0,-2587.152604277
0.90954773869307,29511565.194845,1036.6266283175,0,-2587.1475791811
0.91457286432132,29511507.869268,1036.6266455941,0,-2587.1425540852
0.91959798994957,29511450.543694,1036.6266628707,0,-2587.1375289893
0.92462311557782,29511393.21812,1036.6266801473,0,-2587.1325038933
0.92964824120561,29511335.892549,1036.6266974239,0,-2587.1274787974
0.93467336683386,29511278.566977,1036.6267147005,0,-2587.1224537015
0.93969849246211,29511221.241407,1036.6267319771,0,-2587.1174286055
0.94472361809036,29511163.915843,1036.6267492536,0,-2587.1124035096
0.94974874371815,29511106.590266,1036.6267665302,0,-2587.1073784137
0.9547738693464,29511049.264741,1036.6267838068,0,-2587.1023533177
0.95979899497465,29510991.939006,1036.6268010834,0,-2587.0973282218
0.9648241206029,29510934.614169,1036.62681836,0,-2587.0923031259
0.96984924623069,29510877.285542,1036.6268356366,0,-2587.08727803
0.97487437185894,29510819.972967,1036.6268529132,0,-2587.082252934
0.97989949748719,29510762.592403,1036.6268701898,0,-2587.0772278381
0.98492462311544,29510705.499855,1036.6268874664,0,-2587.0722027422
0.98994974874324,29510647.187255,1036.626904743,0,-2587.0671776462
0.99497487437148,29510594.042889,1036.6269220196,0,-2587.0621525503
0.99999999999973,29510519.005538,1036.6269392962,0,-2587.0571274544
