id,p,x,y,z
0,36109301.044261,1036.6235012545,0,-2588.0571215443
0.0050251256282488,36109740.851408,1036.6235185311,0,-2588.0520964484
0.010050251256498,36109680.177057,1036.6235358077,0,-2588.0470713524
0.015075376884293,36109613.598326,1036.6235530842,0,-2588.0420462565
0.020100502512541,36109548.413432,1036.6235703608,0,-2588.0370211606
0.02512562814079,36109482.899499,1036.6235876374,0,-2588.0319960647
0.03015075376904,36109417.463246,1036.623604914,0,-2588.0269709687
0.035175879396834,36109352.008656,1036.6236221906,0,-2588.0219458728
0.040201005025083,36109286.558397,1036.6236394672,0,-2588.0169207769
0.045226130653332,36109221.107118,1036.6236567438,0,-2588.0118956809
0.050251256281581,36109155.656082,1036.6236740204,0,-2588.006870585
0.055276381909375,36109090.20499,1036.623691297,0,-2588.0018454891
0.060301507537624,36109024.753915,1036.6237085736,0,-2587.9968203931
0.065326633165874,36108959.302836,1036.6237258502,0,-2587.9917952972
0.070351758794123,36108893.851762,1036.6237431268,0,-2587.9867702013
0.075376884421917,36108828.400689,1036.6237604033,0,-2587.9817451054
0.080402010050166,36108762.949616,1036.6237776799,0,-2587.9767200094
0.085427135678415,36108697.498547,1036.6237949565,0,-2587.9716949135
0.090452261306664,36108632.047479,1036.6238122331,0,-2587.9666698176
0.095477386934458,36108566.596413,1036.6238295097,0,-2587.9616447216
0.10050251256271,36108501.145348,1036.6238467863,0,-2587.9566196257
0.10552763819096,36108435.694285,1036.6238640629,0,-2587.9515945298
0.11055276381921,36108370.243224,1036.6238813395,0,-2587.9465694339
0.115577889447,36108304.792165,1036.6238986161,0,-2587.9415443379
0.12060301507525,36108239.341108,1036.6239158927,0,-2587.936519242
0.1256281407035,36108173.890052,1036.6239331693,0,-2587.9314941461
0.13065326633175,36108108.438998,1036.6239504458,0,-2587.9264690501
0.13567839195954,36108042.987945,1036.6239677224,0,-2587.9214439542
0.14070351758779,36107977.536894,1036.623984999,0,-2587.9164188583
0.14572864321604,36107912.085846,1036.6240022756,0,-2587.9113937624
0.15075376884429,36107846.634799,1036.6240195522,0,-2587.9063686664
0.15577889447254,36107781.183753,1036.6240368288,0,-2587.9013435705
0.16080402010033,36107715.73271,1036.6240541054,0,-2587.8963184746
0.16582914572858,36107650.281668,1036.624071382,0,-2587.8912933786
0.17085427135683,36107584.830629,1036.6240886586,0,-2587.8862682827
0.17587939698508,36107519.37959,1036.6241059352,0,-2587.8812431868
0.18090452261287,36107453.928553,1036.6241232118,0,-2587.8762180908
0.18592964824112,36107388.477519,1036.6241404884,0,-2587.8711929949
0.19095477386937,36107323.026486,1036.6241577649,0,-2587.866167899
0.19597989949762,36107257.575455,1036.6241750415,0,-2587.8611428031
0.20100502512541,36107192.124425,1036.6241923181,0,-2587.8561177071
0.20603015075366,36107126.673398,1036.6242095947,0,-2587.8510926112
0.21105527638191,36107061.222371,1036.6242268713,0,-2587.8460675153
0.21608040201016,36106995.771348,1036.6242441479,0,-2587.8410424193
0.22110552763796,36106930.320326,1036.6242614245,0,-2587.8360173234
0.22613065326621,36106864.869305,1036.6242787011,0,-2587.8309922275
0.23115577889445,36106799.418286,1036.6242959777,0,-2587.8259671316
0.2361809045227,36106733.967269,1036.6243132543,0,-2587.8209420356
0.2412060301505,36106668.516253,1036.6243305309,0,-2587.8159169397
0.24623115577875,36106603.065239,1036.6243478074,0,-2587.8108918438
0.251256281407,36106537.614227,1036.624365084,0,-2587.8058667478
0.25628140703524,36106472.163218,1036.6243823606,0,-2587.8008416519
0.26130653266304,36106406.712209,1036.6243996372,0,-2587.795816556
0.26633165829129,36106341.261203,1036.6244169138,0,-2587.7907914601
0.27135678391954,36106275.810197,1036.6244341904,0,-2587.7857663641
0.27638190954779,36106210.359195,1036.624451467,0,-2587.7807412682
0.28140703517558,36106144.908193,1036.6244687436,0,-2587.7757161723
0.28643216080383,36106079.457194,1036.6244860202,0,-2587.7706910763
0.29145728643208,36106014.006196,1036.6245032968,0,-2587.7656659804
0.29648241206033,36105948.5552,1036.6245205734,0,-2587.7606408845
0.30150753768858,36105883.104206,1036.62453785,0,-2587.7556157885
0.30653266331637,36105817.653213,1036.6245551265,0,-2587.7505906926
0.31155778894462,36105752.202223,1036.6245724031,0,-2587.7455655967
0.31658291457287,36105686.751234,1036.6245896797,0,-2587.7405405008
0.32160804020112,36105621.300247,1036.6246069563,0,-2587.7355154048
0.32663316582891,36105555.849261,1036.6246242329,0,-2587.7304903089
0.33165829145716,36105490.398277,1036.6246415095,0,-2587.725465213
0.33668341708541,36105424.947295,1036.6246587861,0,-2587.720440117
0.34170854271366,36105359.496315,1036.6246760627,0,-2587.7154150211
0.34673366834145,36105294.045337,1036.6246933393,0,-2587.7103899252
0.3517587939697,36105228.59436,1036.6247106159,0,-2587.7053648293
0.35678391959795,36105163.143384,1036.6247278925,0,-2587.7003397333
0.3618090452262,36105097.692411,1036.624745169,0,-2587.6953146374
0.366834170854,36105032.24144,1036.6247624456,0,-2587.6902895415
0.37185929648224,36104966.790471,1036.6247797222,0,-2587.6852644455
0.37688442211049,36104901.339503,1036.6247969988,0,-2587.6802393496
0.38190954773874,36104835.888536,1036.6248142754,0,-2587.6752142537
0.38693467336654,36104770.437571,1036.624831552,0,-2587.6701891577
0.39195979899479,36104704.986609,1036.6248488286,0,-2587.6651640618
0.39698492462303,36104639.535649,1036.6248661052,0,-2587.6601389659
0.40201005025128,36104574.08469,1036.6248833818,0,-2587.65511387
0.40703517587908,36104508.633732,1036.6249006584,0,-2587.650088774
0.41206030150733,36104443.182776,1036.624917935,0,-2587.6450636781
0.41708542713558,36104377.731822,1036.6249352116,0,-2587.6400385822
0.42211055276383,36104312.28087,1036.6249524881,0,-2587.6350134862
0.42713567839162,36104246.82992,1036.6249697647,0,-2587.6299883903
0.43216080401987,36104181.378972,1036.6249870413,0,-2587.6249632944
0.43718592964812,36104115.928025,1036.6250043179,0,-2587.6199381985
0.44221105527637,36104050.47708,1036.6250215945,0,-2587.6149131025
0.44723618090462,36103985.026137,1036.6250388711,0,-2587.6098880066
0.45226130653241,36103919.575195,1036.6250561477,0,-2587.6048629107
0.45728643216066,36103854.124256,1036.6250734243,0,-2587.5998378147
0.46231155778891,36103788.673318,1036.6250907009,0,-2587.5948127188
0.46733668341716,36103723.222381,1036.6251079775,0,-2587.5897876229
0.47236180904495,36103657.771447,1036.6251252541,0,-2587.584762527
0.4773869346732,36103592.320514,1036.6251425307,0,-2587.579737431
0.48241206030145,36103526.869583,1036.6251598072,0,-2587.5747123351
0.4874371859297,36103461.418653,1036.6251770838,0,-2587.5696872392
0.49246231155749,36103395.967726,1036.6251943604,0,-2587.5646621432
0.49748743718574,36103330.5168,1036.625211637,0,-2587.5596370473
0.50251256281399,36103265.065876,1036.6252289136,0,-2587.5546119514
0.50753768844224,36103199.614954,1036.6252461902,0,-2587.5495868554
0.51256281407003,36103134.164034,1036.6252634668,0,-2587.5445617595
0.51758793969828,36103068.713115,1036.6252807434,0,-2587.5395366636
0.52261306532653,36103003.262199,1036.62529802,0,-2587.5345115677
0.52763819095478,36102937.811283,1036.6253152966,0,-2587.5294864717
0.53266331658258,36102872.36037,1036.6253325732,0,-2587.5244613758
0.53768844221083,36102806.909459,1036.6253498497,0,-2587.5194362799
0.54271356783907,36102741.458548,1036.6253671263,0,-2587.5144111839
0.54773869346732,36102676.007639,1036.6253844029,0,-2587.509386088
0.55276381909512,36102610.556734,1036.6254016795,0,-2587.5043609921
0.55778894472337,36102545.105829,1036.6254189561,0,-2587.4993358962
0.56281407035162,36102479.654926,1036.6254362327,0,-2587.4943108002
0.56783919597986,36102414.204026,1036.6254535093,0,-2587.4892857043
0.57286432160811,36102348.753126,1036.6254707859,0,-2587.4842606084
0.57788944723591,36102283.302228,1036.6254880625,0,-2587.4792355124
0.58291457286416,36102217.851332,1036.6255053391,0,-2587.4742104165
0.58793969849241,36102152.400438,1036.6255226157,0,-2587.4691853206
0.59296482412066,36102086.949545,1036.6255398923,0,-2587.4641602247
0.59798994974845,36102021.498656,1036.6255571688,0,-2587.4591351287
0.6030150753767,36101956.047767,1036.6255744454,0,-2587.4541100328
0.60804020100495,36101890.59688,1036.625591722,0,-2587.4490849369
0.6130653266332,36101825.145994,1036.6256089986,0,-2587.4440598409
0.61809045226099,36101759.695111,1036.6256262752,0,-2587.439034745
0.62311557788924,36101694.24423,1036.6256435518,0,-2587.4340096491
0.62814070351749,36101628.79335,1036.6256608284,0,-2587.4289845531
0.63316582914574,36101563.342471,1036.625678105,0,-2587.4239594572
0.63819095477353,36101497.891593,1036.6256953816,0,-2587.4189343613
0.64321608040178,36101432.44072,1036.6257126582,0,-2587.4139092654
0.64824120603003,36101366.989846,1036.6257299348,0,-2587.4088841694
0.65326633165828,36101301.538976,1036.6257472113,0,-2587.4038590735
0.65829145728607,36101236.088106,1036.6257644879,0,-2587.3988339776
0.66331658291432,36101170.637238,1036.6257817645,0,-2587.3938088816
0.66834170854257,36101105.186372,1036.6257990411,0,-2587.3887837857
0.67336683417082,36101039.735509,1036.6258163177,0,-2587.3837586898
0.67839195979862,36100974.284647,1036.6258335943,0,-2587.3787335939
0.68341708542686,36100908.833785,1036.6258508709,0,-2587.3737084979
0.68844221105511,36100843.382927,1036.6258681475,0,-2587.368683402
0.69346733668336,36100777.93207,1036.6258854241,0,-2587.3636583061
0.69849246231116,36100712.481213,1036.6259027007,0,-2587.3586332101
0.70351758793941,36100647.03036,1036.6259199773,0,-2587.3536081142
0.70854271356766,36100581.579508,1036.6259372539,0,-2587.3485830183
0.7135678391959,36100516.128658,1036.6259545304,0,-2587.3435579223
0.71859296482415,36100450.67781,1036.625971807,0,-2587.3385328264
0.72361809045195,36100385.226963,1036.6259890836,0,-2587.3335077305
0.7286432160802,36100319.776118,1036.6260063602,0,-2587.3284826346
0.73366834170845,36100254.325275,1036.6260236368,0,-2587.3234575386
0.73869346733669,36100188.874434,1036.6260409134,0,-2587.3184324427
0.74371859296449,36100123.423594,1036.62605819,0,-2587.3134073468
0.74874371859274,36100057.972756,1036.6260754666,0,-2587.3083822508
0.75376884422099,36099992.521921,1036.6260927432,0,-2587.3033571549
0.75879396984924,36099927.071086,1036.6261100198,0,-2587.298332059
0.76381909547703,36099861.620254,1036.6261272964,0,-2587.2933069631
0.76884422110528,36099796.169423,1036.6261445729,0,-2587.2882818671
0.77386934673353,36099730.718594,1036.6261618495,0,-2587.2832567712
0.77889447236178,36099665.267767,1036.6261791261,0,-2587.2782316753
0.78391959798957,36099599.81694,1036.6261964027,0,-2587.2732065793
0.78894472361782,36099534.366117,1036.6262136793,0,-2587.2681814834
0.79396984924607,36099468.915296,1036.6262309559,0,-2587.2631563875
0.79899497487432,36099403.464475,1036.6262482325,0,-2587.2581312916
0.80402010050211,36099338.013656,1036.6262655091,0,-2587.2531061956
0.80904522613036,36099272.56284,1036.6262827857,0,-2587.2480810997
0.81407035175861,36099207.112025,1036.6263000623,0,-2587.2430560038
0.81909547738686,36099141.661212,1036.6263173389,0,-2587.2380309078
0.82412060301465,36099076.210401,1036.6263346155,0,-2587.2330058119
0.8291457286429,36099010.759592,1036.626351892,0,-2587.227980716
0.83417085427115,36098945.308783,1036.6263691686,0,-2587.22295562
0.8391959798994,36098879.857978,1036.6263864452,0,-2587.2179305241
0.8442211055272,36098814.407172,1036.6264037218,0,-2587.2129054282
0.84924623115545,36098748.956369,1036.6264209984,0,-2587.2078803323
0.85427135678369,36098683.505569,1036.626438275,0,-2587.2028552363
0.85929648241194,36098618.05477,1036.6264555516,0,-2587.1978301404
0.86432160804019,36098552.603972,1036.6264728282,0,-2587.1928050445
0.86934673366799,36098487.153177,1036.6264901048,0,-2587.1877799485
0.87437185929624,36098421.702384,1036.6265073814,0,-2587.1827548526
0.87939698492448,36098356.251591,1036.626524658,0,-2587.1777297567
0.88442211055273,36098290.800801,1036.6265419345,0,-2587.1727046608
0.88944723618053,36098225.350012,1036.6265592111,0,-2587.1676795648
0.89447236180878,36098159.899225,1036.6265764877,0,-2587.1626544689
0.89949748743703,36098094.448441,1036.6265937643,0,-2587.157629373
0.90452261306528,36098028.997657,1036.6266110409,0,-2587.152604277
0.90954773869307,36097963.546875,1036.6266283175,0,-2587.1475791811
0.91457286432132,36097898.096095,1036.6266455941,0,-2587.1425540852
0.91959798994957,36097832.645317,1036.6266628707,0,-2587.1375289893
0.92462311557782,36097767.194541,1036.6266801473,0,-2587.1325038933
0.92964824120561,36097701.743767,1036.6266974239,0,-2587.1274787974
0.93467336683386,36097636.292994,1036.6267147005,0,-2587.1224537015
0.93969849246211,36097570.842222,1036.6267319771,0,-2587.1174286055
0.94472361809036,36097505.391456,1036.6267492536,0,-2587.1124035096
0.94974874371815,36097439.940678,1036.6267665302,0,-2587.1073784137
0.9547738693464,36097374.489958,1036.6267838068,0,-2587.1023533177
0.95979899497465,36097309.038999,1036.6268010834,0,-2587.0973282218
0.9648241206029,36097243.589063,1036.62681836,0,-2587.0923031259
0.96984924623069,36097178.134804,1036.6268356366,0,-2587.08727803
0.97487437185894,36097112.698864,1036.6268529132,0,-2587.082252934
0.97989949748719,36097047.18533,1036.6268701898,0,-2587.0772278381
0.98492462311544,36096982.000505,1036.6268874664,0,-2587.0722027422
0.98994974874324,36096915.423253,1036.626904743,0,-2587.0671776462
0.99497487437148,36096854.744427,1036.6269220196,0,-2587.0621525503
0.99999999999973,36096769.079468,1036.6269392962,0,-2587.0571274544
