id,p,x,y,z
0,26395928.088647,0,0,-2057
5.179015075377,26477845.56682,4.609361040173,0,-2059.3613529919
10.358030150754,26506477.138225,9.2187220803459,0,-2061.7227059838
15.537045226131,26537880.823476,13.828083120519,0,-2064.0840589757
20.716060301508,26568622.341335,18.437444160692,0,-2066.4454119676
25.895075376884,26599512.155741,23.046805200865,0,-2068.8067649595
31.074090452261,26630358.970707,27.656166241038,0,-2071.1681179514
36.253105527638,26661207.925848,32.265527281211,0,-2073.5294709432
41.432120603015,26692048.365504,36.874888321384,0,-2075.8908239351
46.611135678392,26722882.801928,41.484249361557,0,-2078.252176927
51.790150753769,26753710.64019,46.09361040173,0,-2080.6135299189
56.969165829146,26784532.018616,50.702971441902,0,-2082.9748829108
62.148180904523,26815346.902533,55.312332482075,0,-2085.3362359027
67.327195979899,26846155.298093,59.921693522248,0,-2087.6975888946
72.506211055276,26876957.20183,64.531054562421,0,-2090.0589418865
77.685226130653,26907752.612554,69.140415602594,0,-2092.4202948784
82.86424120603,26938541.528544,73.749776642767,0,-2094.7816478703
88.043256281407,26969323.948217,78.35913768294,0,-2097.1430008622
93.222271356784,27000099.869965,82.968498723113,0,-2099.5043538541
98.401286432161,27030869.292191,87.577859763286,0,-2101.8657068459
103.58030150754,27061632.213305,92.187220803459,0,-2104.2270598378
108.75931658291,27092388.631727,96.796581843632,0,-2106.5884128297
113.93833165829,27123138.54588,101.4059428838,0,-2108.9497658216
119.11734673367,27153881.954195,106.01530392398,0,-2111.3111188135
124.29636180905,27184618.855112,110.62466496415,0,-2113.6724718054
129.47537688442,27215349.247073,115.23402600432,0,-2116.0338247973
134.6543919598,27246073.128531,119.8433870445,0,-2118.3951777892
139.83340703518,27276790.497944,124.45274808467,0,-2120.7565307811
145.01242211055,27307501.353776,129.06210912484,0,-2123.117883773
150.19143718593,27338205.6945,133.67147016502,0,-2125.4792367649
155.37045226131,27368903.518594,138.28083120519,0,-2127.8405897568
160.54946733668,27399594.824543,142.89019224536,0,-2130.2019427486
165.72848241206,27430279.610838,147.49955328553,0,-2132.5632957405
170.90749748744,27460957.875979,152.10891432571,0,-2134.9246487324
176.08651256281,27491629.618471,156.71827536588,0,-2137.2860017243
181.26552763819,27522294.836824,161.32763640605,0,-2139.6473547162
186.44454271357,27552953.529558,165.93699744623,0,-2142.0087077081
191.62355778894,27583605.695198,170.5463584864,0,-2144.3700607
196.80257286432,27614251.332276,175.15571952657,0,-2146.7314136919
201.9815879397,27644890.43933,179.76508056675,0,-2149.0927666838
207.16060301508,27675523.014904,184.37444160692,0,-2151.4541196757
212.33961809045,27706149.057553,188.98380264709,0,-2153.8154726676
217.51863316583,27736768.565833,193.59316368726,0,-2156.1768256595
222.69764824121,27767381.538308,198.20252472744,0,-2158.5381786514
227.87666331658,27797987.973552,202.81188576761,0,-2160.8995316432
233.05567839196,27828587.87014,207.42124680778,0,-2163.2608846351
238.23469346734,27859181.22666,212.03060784796,0,-2165.622237627
243.41370854271,27889768.041701,216.63996888813,0,-2167.9835906189
248.59272361809,27920348.313862,221.2493299283,0,-2170.3449436108
253.77173869347,27950922.041746,225.85869096847,0,-2172.7062966027
258.95075376884,27981489.223966,230.46805200865,0,-2175.0676495946
264.12976884422,28012049.859136,235.07741304882,0,-2177.4290025865
269.3087839196,28042603.945883,239.68677408899,0,-2179.7903555784
274.48779899497,28073151.482837,244.29613512917,0,-2182.1517085703
279.66681407035,28103692.468633,248.90549616934,0,-2184.5130615622
284.84582914573,28134226.901917,253.51485720951,0,-2186.8744145541
290.02484422111,28164754.781336,258.12421824969,0,-2189.2357675459
295.20385929648,28195276.105549,262.73357928986,0,-2191.5971205378
300.38287437186,28225790.873218,267.34294033003,0,-2193.9584735297
305.56188944724,28256299.083012,271.9523013702,0,-2196.3198265216
310.74090452261,28286800.733606,276.56166241038,0,-2198.6811795135
315.91991959799,28317295.823684,281.17102345055,0,-2201.0425325054
321.09893467337,28347784.351935,285.78038449072,0,-2203.4038854973
326.27794974874,28378266.31705,290.3897455309,0,-2205.7652384892
331.45696482412,28408741.717735,294.99910657107,0,-2208.1265914811
336.6359798995,28439210.552695,299.60846761124,0,-2210.487944473
341.81499497487,28469672.820646,304.21782865142,0,-2212.8492974649
346.99401005025,28500128.520307,308.82718969159,0,-2215.2106504568
352.17302512563,28530577.650406,313.43655073176,0,-2217.5720034486
357.352040201,28561020.209677,318.04591177193,0,-2219.9333564405
362.53105527638,28591456.196858,322.65527281211,0,-2222.2947094324
367.71007035176,28621885.610699,327.26463385228,0,-2224.6560624243
372.88908542714,28652308.449947,331.87399489245,0,-2227.0174154162
378.06810050251,28682724.713364,336.48335593263,0,-2229.3787684081
383.24711557789,28713134.399714,341.0927169728,0,-2231.7401214
388.42613065327,28743537.507769,345.70207801297,0,-2234.1014743919
393.60514572864,28773934.036306,350.31143905314,0,-2236.4628273838
398.78416080402,28804323.98411,354.92080009332,0,-2238.8241803757
403.9631758794,28834707.349972,359.53016113349,0,-2241.1855333676
409.14219095477,28865084.132684,364.13952217366,0,-2243.5468863595
414.32120603015,28895454.331055,368.74888321384,0,-2245.9082393514
419.50022110553,28925817.94389,373.35824425401,0,-2248.2695923432
424.6792361809,28956174.970006,377.96760529418,0,-2250.6309453351
429.85825125628,28986525.408223,382.57696633436,0,-2252.992298327
435.03726633166,29016869.257371,387.18632737453,0,-2255.3536513189
440.21628140704,29047206.516283,391.7956884147,0,-2257.7150043108
445.39529648241,29077537.183799,396.40504945487,0,-2260.0763573027
450.57431155779,29107861.258765,401.01441049505,0,-2262.4377102946
455.75332663317,29138178.740036,405.62377153522,0,-2264.7990632865
460.93234170854,29168489.626467,410.23313257539,0,-2267.1604162784
466.11135678392,29198793.916926,414.84249361557,0,-2269.5217692703
471.2903718593,29229091.610284,419.45185465574,0,-2271.8831222622
476.46938693467,29259382.705418,424.06121569591,0,-2274.2444752541
481.64840201005,29289667.20121,428.67057673608,0,-2276.6058282459
486.82741708543,29319945.096551,433.27993777626,0,-2278.9671812378
492.0064321608,29350216.390337,437.88929881643,0,-2281.3285342297
497.18544723618,29380481.08147,442.4986598566,0,-2283.6898872216
502.36446231156,29410739.168857,447.10802089678,0,-2286.0512402135
507.54347738693,29440990.651415,451.71738193695,0,-2288.4125932054
512.72249246231,29471235.528059,456.32674297712,0,-2290.7739461973
517.90150753769,29501473.79772,460.9361040173,0,-2293.1352991892
523.08052261307,29531705.459328,465.54546505747,0,-2295.4966521811
528.25953768844,29561930.511823,470.15482609764,0,-2297.858005173
533.43855276382,29592148.954148,474.76418713781,0,-2300.2193581649
538.6175678392,29622360.785254,479.37354817799,0,-2302.5807111568
543.79658291457,29652566.004099,483.98290921816,0,-2304.9420641486
548.97559798995,29682764.609645,488.59227025833,0,-2307.3034171405
554.15461306533,29712956.600859,493.20163129851,0,-2309.6647701324
559.3336281407,29743141.97672,497.81099233868,0,-2312.0261231243
564.51264321608,29773320.736203,502.42035337885,0,-2314.3874761162
569.69165829146,29803492.8783,507.02971441903,0,-2316.7488291081
574.87067336683,29833658.402001,511.6390754592,0,-2319.1101821
580.04968844221,29863817.306304,516.24843649937,0,-2321.4715350919
585.22870351759,29893969.590216,520.85779753954,0,-2323.8328880838
590.40771859297,29924115.252747,525.46715857972,0,-2326.1942410757
595.58673366834,29954254.292912,530.07651961989,0,-2328.5555940676
600.76574874372,29984386.709736,534.68588066006,0,-2330.9169470595
605.9447638191,30014512.502246,539.29524170024,0,-2333.2783000514
611.12377889447,30044631.669477,543.90460274041,0,-2335.6396530432
616.30279396985,30074744.210469,548.51396378058,0,-2338.0010060351
621.48180904523,30104850.124269,553.12332482075,0,-2340.362359027
626.6608241206,30134949.409929,557.73268586093,0,-2342.7237120189
631.83983919598,30165042.066508,562.3420469011,0,-2345.0850650108
637.01885427136,30195128.093066,566.95140794127,0,-2347.4464180027
642.19786934673,30225207.488677,571.56076898145,0,-2349.8077709946
647.37688442211,30255280.252417,576.17013002162,0,-2352.1691239865
652.55589949749,30285346.383366,580.77949106179,0,-2354.5304769784
657.73491457286,30315405.88061,585.38885210197,0,-2356.8918299703
662.91392964824,30345458.743246,589.99821314214,0,-2359.2531829622
668.09294472362,30375504.970369,594.60757418231,0,-2361.6145359541
673.271959799,30405544.561087,599.21693522248,0,-2363.9758889459
678.45097487437,30435577.51451,603.82629626266,0,-2366.3372419378
683.62998994975,30465603.829755,608.43565730283,0,-2368.6985949297
688.80900502513,30495623.505943,613.045018343,0,-2371.0599479216
693.9880201005,30525636.542203,617.65437938318,0,-2373.4213009135
699.16703517588,30555642.93767,622.26374042335,0,-2375.7826539054
704.34605025126,30585642.691483,626.87310146352,0,-2378.1440068973
709.52506532663,30615635.802786,631.48246250369,0,-2380.5053598892
714.70408040201,30645622.270733,636.09182354387,0,-2382.8667128811
719.88309547739,30675602.094481,640.70118458404,0,-2385.228065873
725.06211055276,30705575.27319,645.31054562421,0,-2387.5894188649
730.24112562814,30735541.806029,649.91990666439,0,-2389.9507718568
735.42014070352,30765501.692175,654.52926770456,0,-2392.3121248486
740.59915577889,30795454.930805,659.13862874473,0,-2394.6734778405
745.77817085427,30825401.521107,663.74798978491,0,-2397.0348308324
750.95718592965,30855341.462271,668.35735082508,0,-2399.3961838243
756.13620100503,30885274.753495,672.96671186525,0,-2401.7575368162
761.3152160804,30915201.39398,677.57607290542,0,-2404.1188898081
766.49423115578,30945121.382936,682.1854339456,0,-2406.4802428
771.67324623116,30975034.719576,686.79479498577,0,-2408.8415957919
776.85226130653,31004941.403121,691.40415602594,0,-2411.2029487838
782.03127638191,31034841.432796,696.01351706612,0,-2413.5643017757
787.21029145729,31064734.80783,700.62287810629,0,-2415.9256547676
792.38930653266,31094621.527462,705.23223914646,0,-2418.2870077595
797.56832160804,31124501.590934,709.84160018663,0,-2420.6483607514
802.74733668342,31154374.997492,714.45096122681,0,-2423.0097137432
807.92635175879,31184241.746392,719.06032226698,0,-2425.3710667351
813.10536683417,31214101.836893,723.66968330715,0,-2427.732419727
818.28438190955,31243955.268256,728.27904434733,0,-2430.0937727189
823.46339698492,31273802.039756,732.8884053875,0,-2432.4551257108
828.6424120603,31303642.150666,737.49776642767,0,-2434.8164787027
833.82142713568,31333475.600268,742.10712746785,0,-2437.1778316946
839.00044221106,31363302.387848,746.71648850802,0,-2439.5391846865
844.17945728643,31393122.5127,751.32584954819,0,-2441.9005376784
849.35847236181,31422935.974123,755.93521058836,0,-2444.2618906703
854.53748743719,31452742.771415,760.54457162854,0,-2446.6232436622
859.71650251256,31482542.903892,765.15393266871,0,-2448.9845966541
864.89551758794,31512336.370864,769.76329370888,0,-2451.3459496459
870.07453266332,31542123.171652,774.37265474906,0,-2453.7073026378
875.25354773869,31571903.305583,778.98201578923,0,-2456.0686556297
880.43256281407,31601676.771986,783.5913768294,0,-2458.4300086216
885.61157788945,31631443.5702,788.20073786958,0,-2460.7913616135
890.79059296482,31661203.699565,792.81009890975,0,-2463.1527146054
895.9696080402,31690957.159429,797.41945994992,0,-2465.5140675973
901.14862311558,31720703.949144,802.02882099009,0,-2467.8754205892
906.32763819095,31750444.068069,806.63818203027,0,-2470.2367735811
911.50665326633,31780177.515568,811.24754307044,0,-2472.598126573
916.68566834171,31809904.291011,815.85690411061,0,-2474.9594795649
921.86468341709,31839624.39377,820.46626515079,0,-2477.3208325568
927.04369849246,31869337.823227,825.07562619096,0,-2479.6821855486
932.22271356784,31899044.578767,829.68498723113,0,-2482.0435385405
937.40172864322,31928744.659781,834.2943482713,0,-2484.4048915324
942.58074371859,31958438.065664,838.90370931148,0,-2486.7662445243
947.75975879397,31988124.795821,843.51307035165,0,-2489.1275975162
952.93877386935,32017804.84965,848.12243139182,0,-2491.4889505081
958.11778894472,32047478.22659,852.731792432,0,-2493.8503035
963.2968040201,32077144.925957,857.34115347217,0,-2496.2116564919
968.47581909548,32106804.947594,861.95051451234,0,-2498.5730094838
973.65483417085,32136458.289156,866.55987555252,0,-2500.9343624757
978.83384924623,32166104.957582,871.16923659269,0,-2503.2957154676
984.01286432161,32195744.920558,875.77859763286,0,-2505.6570684595
989.19187939699,32225378.311887,880.38795867303,0,-2508.0184214513
994.37089447236,32255004.562266,884.99731971321,0,-2510.3797744432
999.54990954774,32284626.080088,889.60668075338,0,-2512.7411274351
1004.7289246231,32314232.657126,894.21604179355,0,-2515.102480427
1009.9079396985,32343867.565946,898.82540283373,0,-2517.4638334189
1015.0869547739,32373347.320365,903.4347638739,0,-2519.8251864108
1020.2659698492,32403450.026399,908.04412491407,0,-2522.1865394027
1025.4449849246,32430876.366937,912.65348595424,0,-2524.5478923946
1030.624,32469613.833009,917.26284699442,0,-2526.9092453865
