id,p,x,y,z
0,-2997720.6918411,0,0,0
10.336683417085,-2814514.8554306,1.2658793969849e-15,0,-10.336683417085
20.673366834171,-2684760.0802279,2.5317587939698e-15,0,-20.673366834171
31.010050251256,-2542379.5466509,3.7976381909548e-15,0,-31.010050251256
41.346733668342,-2402970.4329538,5.0635175879397e-15,0,-41.346733668342
51.683417085427,-2262851.6555357,6.3293969849246e-15,0,-51.683417085427
62.020100502513,-2122892.5050755,7.5952763819095e-15,0,-62.020100502513
72.356783919598,-1982888.267344,8.8611557788945e-15,0,-72.356783919598
82.693467336683,-1842887.7138677,1.0127035175879e-14,0,-82.693467336683
93.030150753769,-1702879.7909303,1.1392914572864e-14,0,-93.030150753769
103.36683417085,-1562867.5630021,1.2658793969849e-14,0,-103.36683417085
113.70351758794,-1422850.7622485,1.3924673366834e-14,0,-113.70351758794
124.04020100503,-1282829.9065914,1.5190552763819e-14,0,-124.04020100503
134.37688442211,-1142805.3279366,1.6456432160804e-14,0,-134.37688442211
144.7135678392,-1002777.4014759,1.7722311557789e-14,0,-144.7135678392
155.05025125628,-862746.49157047,1.8988190954774e-14,0,-155.05025125628
165.38693467337,-722712.96451902,2.0254070351759e-14,0,-165.38693467337
175.72361809045,-582677.18553591,2.1519949748744e-14,0,-175.72361809045
186.06030150754,-442639.51945162,2.2785829145729e-14,0,-186.06030150754
196.39698492462,-302600.33055544,2.4051708542714e-14,0,-196.39698492462
206.73366834171,-162559.98261547,2.5317587939698e-14,0,-206.73366834171
217.07035175879,-22518.838869095,2.6583467336683e-14,0,-217.07035175879
227.40703517588,117522.7379775,2.7849346733668e-14,0,-227.40703517588
237.74371859296,257564.38575649,2.9115226130653e-14,0,-237.74371859296
248.08040201005,397605.74284554,3.0381105527638e-14,0,-248.08040201005
258.41708542714,537646.44816685,3.1646984924623e-14,0,-258.41708542714
268.75376884422,677686.14119625,3.2912864321608e-14,0,-268.75376884422
279.09045226131,817724.46197033,3.4178743718593e-14,0,-279.09045226131
289.42713567839,957761.05108356,3.5444623115578e-14,0,-289.42713567839
299.76381909548,1097795.5497007,3.6710502512563e-14,0,-299.76381909548
310.10050251256,1237827.5995569,3.7976381909548e-14,0,-310.10050251256
320.43718592965,1377856.8429637,3.9242261306533e-14,0,-320.43718592965
330.77386934673,1517882.9228139,4.0508140703518e-14,0,-330.77386934673
341.11055276382,1657905.4825854,4.1774020100503e-14,0,-341.11055276382
351.4472361809,1797924.1663499,4.3039899497487e-14,0,-351.4472361809
361.78391959799,1937938.6187682,4.4305778894472e-14,0,-361.78391959799
372.12060301508,2077948.4851046,4.5571658291457e-14,0,-372.12060301508
382.45728643216,2217953.4112258,4.6837537688442e-14,0,-382.45728643216
392.79396984925,2357953.0436077,4.8103417085427e-14,0,-392.79396984925
403.13065326633,2497947.0293369,4.9369296482412e-14,0,-403.13065326633
413.46733668342,2637935.0161209,5.0635175879397e-14,0,-413.46733668342
423.8040201005,2777916.6522861,5.1901055276382e-14,0,-423.8040201005
434.14070351759,2917891.5867848,5.3166934673367e-14,0,-434.14070351759
444.47738693467,3057859.4691997,5.4432814070352e-14,0,-444.47738693467
454.81407035176,3197819.9497499,5.5698693467337e-14,0,-454.81407035176
465.15075376884,3337772.6792917,5.6964572864322e-14,0,-465.15075376884
475.48743718593,3477717.3093243,5.8230452261307e-14,0,-475.48743718593
485.82412060302,3617653.4919944,5.9496331658291e-14,0,-485.82412060302
496.1608040201,3757580.8801012,6.0762211055276e-14,0,-496.1608040201
506.49748743719,3897499.127099,6.2028090452261e-14,0,-506.49748743719
516.83417085427,4037407.8871012,6.3293969849246e-14,0,-516.83417085427
527.17085427136,4177306.8148851,6.4559849246231e-14,0,-527.17085427136
537.50753768844,4317195.5658975,6.5825728643216e-14,0,-537.50753768844
547.84422110553,4457073.7962537,6.7091608040201e-14,0,-547.84422110553
558.18090452261,4596941.1627502,6.8357487437186e-14,0,-558.18090452261
568.5175879397,4736797.3228579,6.9623366834171e-14,0,-568.5175879397
578.85427135678,4876641.9347348,7.0889246231156e-14,0,-578.85427135678
589.19095477387,5016474.6572256,7.2155125628141e-14,0,-589.19095477387
599.52763819095,5156295.1498675,7.3421005025126e-14,0,-599.52763819095
609.86432160804,5296103.0728912,7.4686884422111e-14,0,-609.86432160804
620.20100502513,5435898.0872288,7.5952763819095e-14,0,-620.20100502513
630.53768844221,5575679.8545151,7.721864321608e-14,0,-630.53768844221
640.8743718593,5715448.0370913,7.8484522613065e-14,0,-640.8743718593
651.21105527638,5855202.298007,7.975040201005e-14,0,-651.21105527638
661.54773869347,5994942.3010321,8.1016281407035e-14,0,-661.54773869347
671.88442211055,6134667.7106466,8.228216080402e-14,0,-671.88442211055
682.22110552764,6274378.1920581,8.3548040201005e-14,0,-682.22110552764
692.55778894472,6414073.4111981,8.481391959799e-14,0,-692.55778894472
702.89447236181,6553753.0347247,8.6079798994975e-14,0,-702.89447236181
713.23115577889,6693416.7300291,8.734567839196e-14,0,-713.23115577889
723.56783919598,6833064.1652393,8.8611557788945e-14,0,-723.56783919598
733.90452261307,6972695.0092239,8.987743718593e-14,0,-733.90452261307
744.24120603015,7112308.9315901,9.1143316582915e-14,0,-744.24120603015
754.57788944724,7251905.602695,9.2409195979899e-14,0,-754.57788944724
764.91457286432,7391484.6936426,9.3675075376884e-14,0,-764.91457286432
775.25125628141,7531045.8762932,9.4940954773869e-14,0,-775.25125628141
785.58793969849,7670588.8232598,9.6206834170854e-14,0,-785.58793969849
795.92462311558,7810113.2079148,9.7472713567839e-14,0,-795.92462311558
806.26130653266,7949618.7043982,9.8738592964824e-14,0,-806.26130653266
816.59798994975,8089104.9876103,1.0000447236181e-13,0,-816.59798994975
826.93467336683,8228571.7332249,1.0127035175879e-13,0,-826.93467336683
837.27135678392,8368018.6176858,1.0253623115578e-13,0,-837.27135678392
847.608040201,8507445.3182125,1.0380211055276e-13,0,-847.608040201
857.94472361809,8646851.5128026,1.0506798994975e-13,0,-857.94472361809
868.28140703518,8786236.8802385,1.0633386934673e-13,0,-868.28140703518
878.61809045226,8925601.1000853,1.0759974874372e-13,0,-878.61809045226
888.95477386935,9064943.8526955,1.088656281407e-13,0,-888.95477386935
899.29145728643,9204264.8192124,1.1013150753769e-13,0,-899.29145728643
909.62814070352,9343563.6815753,1.1139738693467e-13,0,-909.62814070352
919.9648241206,9482840.1225171,1.1266326633166e-13,0,-919.9648241206
930.30150753769,9622093.8255715,1.1392914572864e-13,0,-930.30150753769
940.63819095477,9761324.4750762,1.1519502512563e-13,0,-940.63819095477
950.97487437186,9900531.7561722,1.1646090452261e-13,0,-950.97487437186
961.31155778894,10039715.354809,1.177267839196e-13,0,-961.31155778894
971.64824120603,10178874.957749,1.1899266331658e-13,0,-971.64824120603
981.98492462312,10318010.252562,1.2025854271357e-13,0,-981.98492462312
992.3216080402,10457120.927644,1.2152442211055e-13,0,-992.3216080402
1002.6582914573,10596206.672202,1.2279030150754e-13,0,-1002.6582914573
1012.9949748744,10735267.176267,1.2405618090452e-13,0,-1012.9949748744
1023.3316582915,10874302.130695,1.2532206030151e-13,0,-1023.3316582915
1033.6683417085,11013311.227169,1.2658793969849e-13,0,-1033.6683417085
1044.0050251256,11152294.158199,1.2785381909548e-13,0,-1044.0050251256
1054.3417085427,11291250.617131,1.2911969849246e-13,0,-1054.3417085427
1064.6783919598,11430180.298142,1.3038557788945e-13,0,-1064.6783919598
1075.0150753769,11569082.896248,1.3165145728643e-13,0,-1075.0150753769
1085.351758794,11707958.107302,1.3291733668342e-13,0,-1085.351758794
1095.6884422111,11846805.628001,1.341832160804e-13,0,-1095.6884422111
1106.0251256281,11985625.155886,1.3544909547739e-13,0,-1106.0251256281
1116.3618090452,12124416.389343,1.3671497487437e-13,0,-1116.3618090452
1126.6984924623,12263179.027609,1.3798085427136e-13,0,-1126.6984924623
1137.0351758794,12401912.770767,1.3924673366834e-13,0,-1137.0351758794
1147.3718592965,12540617.319762,1.4051261306533e-13,0,-1147.3718592965
1157.7085427136,12679292.376385,1.4177849246231e-13,0,-1157.7085427136
1168.0452261307,12817937.643293,1.430443718593e-13,0,-1168.0452261307
1178.3819095477,12956552.823997,1.4431025125628e-13,0,-1178.3819095477
1188.7185929648,13095137.622872,1.4557613065327e-13,0,-1188.7185929648
1199.0552763819,13233691.745159,1.4684201005025e-13,0,-1199.0552763819
1209.391959799,13372214.896962,1.4810788944724e-13,0,-1209.391959799
1219.7286432161,13510706.785255,1.4937376884422e-13,0,-1219.7286432161
1230.0653266332,13649167.117883,1.5063964824121e-13,0,-1230.0653266332
1240.4020100503,13787595.60356,1.5190552763819e-13,0,-1240.4020100503
1250.7386934673,13925991.95188,1.5317140703518e-13,0,-1250.7386934673
1261.0753768844,14064355.873307,1.5443728643216e-13,0,-1261.0753768844
1271.4120603015,14202687.079186,1.5570316582915e-13,0,-1271.4120603015
1281.7487437186,14340985.281742,1.5696904522613e-13,0,-1281.7487437186
1292.0854271357,14479250.194081,1.5823492462312e-13,0,-1292.0854271357
1302.4221105528,14617481.530192,1.595008040201e-13,0,-1302.4221105528
1312.7587939698,14755679.004951,1.6076668341709e-13,0,-1312.7587939698
1323.0954773869,14893842.334118,1.6203256281407e-13,0,-1323.0954773869
1333.432160804,15031971.234345,1.6329844221106e-13,0,-1333.432160804
1343.7688442211,15170065.423175,1.6456432160804e-13,0,-1343.7688442211
1354.1055276382,15308124.619039,1.6583020100503e-13,0,-1354.1055276382
1364.4422110553,15446148.541264,1.6709608040201e-13,0,-1364.4422110553
1374.7788944724,15584136.910072,1.6836195979899e-13,0,-1374.7788944724
1385.1155778894,15722089.446584,1.6962783919598e-13,0,-1385.1155778894
1395.4522613065,15860005.872816,1.7089371859296e-13,0,-1395.4522613065
1405.7889447236,15997885.911685,1.7215959798995e-13,0,-1405.7889447236
1416.1256281407,16135729.287013,1.7342547738693e-13,0,-1416.1256281407
1426.4623115578,16273535.723518,1.7469135678392e-13,0,-1426.4623115578
1436.7989949749,16411304.946827,1.759572361809e-13,0,-1436.7989949749
1447.135678392,16549036.683474,1.7722311557789e-13,0,-1447.135678392
1457.472361809,16686730.660896,1.7848899497487e-13,0,-1457.472361809
1467.8090452261,16824386.60744,1.7975487437186e-13,0,-1467.8090452261
1478.1457286432,16962004.252364,1.8102075376884e-13,0,-1478.1457286432
1488.4824120603,17099583.325836,1.8228663316583e-13,0,-1488.4824120603
1498.8190954774,17237123.558935,1.8355251256281e-13,0,-1498.8190954774
1509.1557788945,17374624.683657,1.848183919598e-13,0,-1509.1557788945
1519.4924623116,17512086.432908,1.8608427135678e-13,0,-1519.4924623116
1529.8291457286,17649508.540515,1.8735015075377e-13,0,-1529.8291457286
1540.1658291457,17786890.741217,1.8861603015075e-13,0,-1540.1658291457
1550.5025125628,17924232.770674,1.8988190954774e-13,0,-1550.5025125628
1560.8391959799,18061534.365466,1.9114778894472e-13,0,-1560.8391959799
1571.175879397,18198795.26309,1.9241366834171e-13,0,-1571.175879397
1581.5125628141,18336015.201966,1.9367954773869e-13,0,-1581.5125628141
1591.8492462312,18473193.92144,1.9494542713568e-13,0,-1591.8492462312
1602.1859296482,18610331.161775,1.9621130653266e-13,0,-1602.1859296482
1612.5226130653,18747426.664161,1.9747718592965e-13,0,-1612.5226130653
1622.8592964824,18884480.170715,1.9874306532663e-13,0,-1622.8592964824
1633.1959798995,19021491.424476,2.0000894472362e-13,0,-1633.1959798995
1643.5326633166,19158460.169415,2.012748241206e-13,0,-1643.5326633166
1653.8693467337,19295386.150426,2.0254070351759e-13,0,-1653.8693467337
1664.2060301508,19432269.113336,2.0380658291457e-13,0,-1664.2060301508
1674.5427135678,19569108.804896,2.0507246231156e-13,0,-1674.5427135678
1684.8793969849,19705904.972793,2.0633834170854e-13,0,-1684.8793969849
1695.216080402,19842657.365641,2.0760422110553e-13,0,-1695.216080402
1705.5527638191,19979365.732987,2.0887010050251e-13,0,-1705.5527638191
1715.8894472362,20116029.825311,2.101359798995e-13,0,-1715.8894472362
1726.2261306533,20252649.394023,2.1140185929648e-13,0,-1726.2261306533
1736.5628140704,20389224.19147,2.1266773869347e-13,0,-1736.5628140704
1746.8994974874,20525753.970932,2.1393361809045e-13,0,-1746.8994974874
1757.2361809045,20662238.486624,2.1519949748744e-13,0,-1757.2361809045
1767.5728643216,20798677.493695,2.1646537688442e-13,0,-1767.5728643216
1777.9095477387,20935070.748232,2.1773125628141e-13,0,-1777.9095477387
1788.2462311558,21071418.007256,2.1899713567839e-13,0,-1788.2462311558
1798.5829145729,21207719.028728,2.2026301507538e-13,0,-1798.5829145729
1808.9195979899,21343973.571542,2.2152889447236e-13,0,-1808.9195979899
1819.256281407,21480181.395534,2.2279477386935e-13,0,-1819.256281407
1829.5929648241,21616342.261477,2.2406065326633e-13,0,-1829.5929648241
1839.9296482412,21752455.931081,2.2532653266332e-13,0,-1839.9296482412
1850.2663316583,21888522.166996,2.265924120603e-13,0,-1850.2663316583
1860.6030150754,22024540.73281,2.2785829145729e-13,0,-1860.6030150754
1870.9396984925,22160511.393054,2.2912417085427e-13,0,-1870.9396984925
1881.2763819095,22296433.913194,2.3039005025126e-13,0,-1881.2763819095
1891.6130653266,22432308.059644,2.3165592964824e-13,0,-1891.6130653266
1901.9497487437,22568133.59973,2.3292180904523e-13,0,-1901.9497487437
1912.2864321608,22703910.301843,2.3418768844221e-13,0,-1912.2864321608
1922.6231155779,22839637.934768,2.354535678392e-13,0,-1922.6231155779
1932.959798995,22975316.270585,2.3671944723618e-13,0,-1932.959798995
1943.2964824121,23110945.072301,2.3798532663317e-13,0,-1943.2964824121
1953.6331658291,23246524.146316,2.3925120603015e-13,0,-1953.6331658291
1963.9698492462,23382053.120151,2.4051708542714e-13,0,-1963.9698492462
1974.3065326633,23517532.383821,2.4178296482412e-13,0,-1974.3065326633
1984.6432160804,23652959.104492,2.4304884422111e-13,0,-1984.6432160804
1994.9798994975,23788344.096364,2.4431472361809e-13,0,-1994.9798994975
2005.3165829146,23923640.417924,2.4558060301508e-13,0,-2005.3165829146
2015.6532663317,24059045.668266,2.4684648241206e-13,0,-2015.6532663317
2025.9899497487,24193721.850441,2.4811236180905e-13,0,-2025.9899497487
2036.3266331658,24331218.784442,2.4937824120603e-13,0,-2036.3266331658
2046.6633165829,24456492.334946,2.5064412060302e-13,0,-2046.6633165829
2057,24633314.390751,2.5191e-13,0,-2057
